#Acq. time (s)=	8
#Accumulations=	15
#Range (cm-¹)=	400...3500
#Windows=	3
#Auto scanning=	Off
#Autofocus=	Off
#AutoExposure=	Off
#Spike filter=	Multiple accum.
#Delay time (s)=	0
#Binning=	1
#Readout mode=	Signal
#DeNoise=	Off
#ICS correction=	On
#Dark correction=	Off
#Inst. Process=	Off
#Detector Gain=	Best Dynamic Range
#Detector ADC=	45 kHz       
#Detector temperature (°C)=	-60.1
#Instrument=	LabRAM HR Evol
#Detector=	Syncerity OE
#Objective=	x50_VIS_LWD
#Grating=	600 (500nm)
#ND Filter=	50%
#Laser=	532nm_Edge
#Hole=	199.981
#Range=	Visible
#E-Cal_Neon=	0
#StageXY=	75x50mm Scan+
#StageZ=	Z motor
#X (µm)=	0
#Y (µm)=	0
#Z (µm)=	1158.8
#Spectral res.(cm-¹)=	12.8
#Full time(mm:ss)=	6:22
#AC=	Calibrated 2025-06-30 10:26
#Project=	
#Sample=	
#Site=	
#Title=	D_99
#Remark=	
#Date=	30.06.2025 16:40 (India Standard Time)
#Acquired=	30.06.2025 16:40:20 (India Standard Time)
#AxisType[0]=Intens
#AxisUnit[0]=Cnt
#AxisType[1]=Spectr
#AxisUnit[1]=1/cm
400.17	28712.6
401.945	28596.2
403.717	28530.6
405.491	28667.6
407.263	28664
409.036	28678.6
410.807	28675.6
412.58	28662.5
414.35	28657.1
416.122	28723.8
417.892	28780.7
419.663	28749.3
421.432	28740.5
423.203	28806
424.971	28775.1
426.741	28832.3
428.509	28798.7
430.276	28791.5
432.045	28851.4
433.812	28955
435.58	28877.9
437.346	28845.5
439.111	28818.5
440.879	28872.5
442.643	28931.4
444.408	28851
446.174	28909.7
447.938	28849.6
449.701	28867.2
451.467	28855.8
453.229	28884.4
454.992	28849.1
456.756	28895.1
458.518	28905.1
460.279	28862.2
462.043	28808.2
463.803	28814.8
465.564	28834.4
467.326	28860.4
469.086	28858.7
470.845	28845.5
472.604	28913.2
474.365	28861.4
476.123	28976.6
477.882	28894.4
479.639	28902
481.399	28950
483.156	28981.1
484.913	28914.2
486.669	29003.7
488.425	28979.6
490.183	28952.4
491.938	28953.3
493.693	28937
495.448	28951.6
497.202	29068.3
498.956	29133.3
500.712	29095.2
502.465	29152.4
504.218	29152.8
505.971	29145.6
507.723	29260.8
509.475	29228.5
511.227	29264.2
512.981	29265.8
514.732	29294.1
516.482	29322.2
518.233	29267
519.983	29260.8
521.732	29231.7
523.482	29232.3
525.231	29222.7
526.979	29241.2
528.728	29212.2
530.476	29269.3
532.223	29222.8
533.971	29199.9
535.718	29225.6
537.464	29182.8
539.211	29206.8
540.956	29166.7
542.702	29124.3
544.447	29156.4
546.192	29185.6
547.937	29223.6
549.681	29118.7
551.425	29169.2
553.169	29152.4
554.912	29260.9
556.655	29230.5
558.398	29182.5
560.14	29250.2
561.882	29209.2
563.624	29285.5
565.365	29213.2
567.106	29324.9
568.847	29330.4
570.585	29308.5
572.325	29353.4
574.065	29307.7
575.804	29344.5
577.543	29400.6
579.282	29352.7
581.02	29368.5
582.756	29461.4
584.494	29389.1
586.231	29481.7
587.968	29423.5
589.705	29501.7
591.441	29372.3
593.175	29416.9
594.911	29466.7
596.646	29521.7
598.381	29437.8
600.116	29382.6
601.848	29509.5
603.582	29540
605.316	29518.8
607.049	29472.3
608.78	29449.8
610.513	29496.5
612.245	29462.1
613.977	29443.6
615.707	29457.7
617.438	29428.1
619.17	29437
620.898	29416.1
622.629	29379.5
624.359	29310.4
626.086	29283.1
627.816	29303
629.545	29299.9
631.272	29221.8
633	29246
634.728	29254.1
636.454	29251.3
638.181	29239.4
639.908	29271
641.633	29406.9
643.36	29207.5
645.084	29250.6
646.81	29214.2
648.535	29246.7
650.258	29185.8
651.983	29195.9
653.705	29229.5
655.43	29238.9
657.153	29175.6
658.875	29293.7
660.598	29187.6
662.319	29264
664.041	29192.4
665.762	29191.6
667.483	29266.8
669.203	29373.6
670.924	29283
672.643	29267.8
674.364	29311.1
676.082	29273.4
677.802	29254.3
679.519	29279.2
681.238	29361.4
682.955	29363.7
684.674	29384.4
686.39	29444.6
688.106	29407.9
689.824	29391.5
691.539	29436.8
693.256	29426.5
694.971	29470
696.685	29462.3
698.401	29493.3
700.115	29450
701.83	29484.6
703.543	29483.5
705.256	29408.5
706.97	29419.9
708.682	29335
710.394	29383.3
712.107	29331.4
713.818	29399.9
715.529	29400.8
717.241	29292
718.952	29409.3
720.661	29419.4
722.373	29403.2
724.082	29319.9
725.791	29373.1
727.501	29372.9
729.209	29323.7
730.917	29321.7
732.625	29325.5
734.334	29283.5
736.041	29337.1
737.747	29324.7
739.453	29250.6
741.161	29299
742.867	29287.6
744.572	29229.1
746.277	29261.2
747.982	29334.3
749.688	29236.3
751.392	29301.8
753.096	29357.5
754.799	29355.9
756.502	29392.2
758.205	29442.6
759.909	29473.5
761.611	29461.1
763.313	29429.5
765.014	29504.6
766.715	29421.4
768.416	29510.5
770.116	29524.1
771.816	29529
773.516	29547.7
775.218	29571.6
776.917	29606.9
778.616	29520.7
780.314	29536.9
782.012	29591.1
783.71	29622.2
785.408	29635.2
787.105	29607.8
788.802	29559.3
790.498	29608.2
792.195	29517.5
793.891	29527.3
795.586	29624.2
797.281	29581.1
798.977	29574.4
800.671	29569.3
802.365	29606.5
804.06	29634.2
805.753	29607.7
807.447	29511.5
809.14	29498.6
810.832	29485.2
812.525	29379.3
814.217	29426
815.907	29439.2
817.598	29431.3
819.289	29454.3
820.98	29457.3
822.671	29516.1
824.361	29497.6
826.051	29520.3
827.74	29516.7
829.43	29533
831.117	29520.4
832.805	29495.9
834.494	29404.2
836.182	29382.9
837.869	29434.5
839.557	29401
841.242	29526.6
842.928	29570.8
844.615	29527.5
846.301	29672.1
847.987	29602.1
849.67	29548
851.355	29538.5
853.04	29563.1
854.724	29615.8
856.407	29626
858.091	29619.9
859.774	29712.1
861.457	29600.4
863.138	29642.1
864.821	29591.8
866.503	29551.8
868.183	29571.2
869.865	29535.1
871.546	29553.9
873.225	29672.5
874.906	29651.3
876.586	29683.2
878.264	29654.4
879.944	29633.3
881.624	29572.9
883.301	29547.2
884.98	29534.3
886.658	29574.8
888.334	29599.7
890.012	29625.9
891.688	29568.4
893.365	29541
895.042	29559.5
896.717	29526.1
898.393	29492.8
900.067	29431.9
901.743	29434
903.416	29429.8
905.091	29341.7
906.766	29370.6
908.438	29310.1
910.112	29323.6
911.784	29228.3
913.458	29329.9
915.129	29305.4
916.802	29261.9
918.472	29234.7
920.145	29209.7
921.815	29159.5
923.484	29282.8
925.156	29215.3
926.825	29145.3
928.495	29146.4
930.164	29085.5
931.834	29066.6
933.501	29030.5
935.171	29102.1
936.838	29079
938.505	29145.4
940.173	29078.8
941.84	29111.4
943.505	29090.5
945.173	29104.7
946.838	29079.8
948.505	29046.7
950.17	29033.2
951.834	29064.7
953.5	29088.1
955.164	29092.2
956.827	29102.5
958.492	29057.5
960.155	29104.4
961.818	29106.7
963.48	29206.4
965.144	29191.5
966.805	29160.3
968.467	29114.9
970.128	29141.6
971.79	29103.8
973.45	29068.7
975.11	29092.6
976.77	29023.4
978.432	29107.7
980.091	29124.5
981.749	29140.3
983.408	29147.3
985.068	29189.1
986.726	29174.7
988.383	29204.4
990.041	29187.3
991.698	29223.9
993.354	29246.5
995.012	29236.7
996.668	29269.4
998.324	29363.9
999.979	29473.9
1001.63	29563.4
1003.29	29588.2
1004.94	29578.6
1006.6	29532.4
1008.25	29459.4
1009.91	29339.4
1011.56	29357.1
1013.21	29283.4
1014.87	29305.7
1016.52	29355.8
1018.17	29235.6
1019.82	29221.7
1021.47	29169
1023.12	29149.8
1024.78	29114.6
1026.43	29039.5
1028.08	29046.7
1029.73	28990.7
1031.38	29003.3
1033.02	28961.6
1034.67	28938
1036.32	28946.5
1037.97	28947.3
1039.62	28889.2
1041.27	28907.1
1042.91	28908.2
1044.56	28881.1
1046.21	28904.1
1047.85	28918.9
1049.5	28819.5
1051.14	28857
1052.79	28863.7
1054.43	28888.2
1056.08	28850.9
1057.72	28887.1
1059.37	28927.8
1061.01	28940.3
1062.65	28962.4
1064.3	28917.8
1065.94	28977
1067.58	28905.6
1069.23	28874.8
1070.87	28897.7
1072.51	28908.1
1074.15	28990.8
1075.79	28840
1077.43	28902.1
1079.07	28952.6
1080.71	28915
1082.35	28975.3
1083.99	28924.8
1085.63	28896.1
1087.27	28893.6
1088.91	28875.2
1090.55	28862.9
1092.18	28805.4
1093.82	28729.5
1095.46	28658.7
1097.1	28618.7
1098.73	28650.8
1100.37	28587.4
1102	28602.9
1103.64	28536.4
1105.27	28480.7
1106.91	28515.7
1108.54	28531.8
1110.18	28446.5
1111.81	28544
1113.44	28603.3
1115.08	28597.5
1116.71	28549.1
1118.34	28657.9
1119.98	28660.2
1121.61	28652.3
1123.24	28688.1
1124.87	28604.4
1126.5	28568.3
1128.13	28548.5
1129.76	28470
1131.39	28455.2
1133.02	28393.5
1134.65	28466.3
1136.28	28353
1137.91	28241
1139.54	28259.4
1141.17	28278.1
1142.8	28374.7
1144.42	28423.1
1146.05	28383.3
1147.68	28519.9
1149.3	28657.2
1150.93	28766.2
1152.56	28968.6
1154.18	29015.9
1155.81	29113.7
1157.43	29104.1
1159.06	28958.1
1160.68	28780.7
1162.31	28556.7
1163.93	28418
1165.55	28246.5
1167.18	28194.4
1168.8	28109.2
1170.42	28060.3
1172.04	28011.3
1173.67	28031.6
1175.29	28014.9
1176.91	27994.4
1178.53	27976.7
1180.15	27884.8
1181.77	27927.1
1183.39	27896
1185.01	27929.9
1186.63	27909.6
1188.25	27866.2
1189.87	27874.1
1191.49	27878.4
1193.11	27967.7
1194.72	27890.1
1196.34	27881.4
1197.96	27787.9
1199.58	27754.8
1201.19	27816.6
1202.81	27748.5
1204.43	27723.8
1206.04	27753.2
1207.66	27735.8
1209.27	27762.7
1210.88	27756
1212.5	27733.9
1214.11	27682.4
1215.73	27659
1217.34	27635.3
1218.95	27691.7
1220.57	27607.3
1222.18	27589.4
1223.79	27636.4
1225.4	27646.1
1227.02	27690.8
1228.63	27643.7
1230.24	27630
1231.85	27614.6
1233.46	27628.1
1235.07	27629.6
1236.68	27504.1
1238.29	27621.5
1239.9	27590.3
1241.51	27652.8
1243.12	27651.8
1244.72	27679.7
1246.33	27743.5
1247.94	27708.5
1249.55	27659.8
1251.15	27657.7
1252.76	27622.2
1254.37	27660.7
1255.97	27657.8
1257.58	27667.2
1259.19	27632.1
1260.79	27711.3
1262.39	27565.1
1264	27630.5
1265.6	27669.2
1267.21	27641.1
1268.81	27595.1
1270.41	27492.2
1272.02	27535.7
1273.62	27440.8
1275.22	27393.7
1276.82	27369.3
1278.43	27385.4
1280.03	27355.6
1281.63	27350
1283.23	27331.8
1284.83	27345.7
1286.43	27299.7
1288.03	27311.8
1289.63	27241.7
1291.23	27290.1
1292.83	27320.6
1294.43	27380.3
1296.03	27497.4
1297.62	27575.4
1299.22	27596
1300.82	27641.7
1302.42	27619.3
1304.01	27580.2
1305.61	27647.8
1307.21	27529.3
1308.8	27505.9
1310.4	27398.4
1311.99	27372.6
1313.59	27281.5
1315.18	27216.4
1316.78	27172.4
1318.37	27098.4
1319.96	27094.9
1321.56	27024.3
1323.15	27029
1324.74	27015.5
1326.34	26991.6
1327.93	26998.9
1329.52	26974.3
1331.11	26950.7
1332.7	26992.3
1334.3	26886.5
1335.89	26874.8
1337.48	26955.8
1339.07	26951.6
1340.66	26953.7
1342.25	26914.6
1343.84	26826.3
1345.42	26848.3
1347.01	26820.8
1348.6	26803.9
1350.19	26838.6
1351.78	26789.2
1353.37	26746.5
1354.95	26673.9
1356.54	26663.2
1358.13	26608.1
1359.71	26542.6
1361.3	26555.9
1362.88	26501
1364.47	26529.8
1366.05	26513.3
1367.64	26458.5
1369.22	26502.6
1370.81	26427.2
1372.39	26377.4
1373.97	26325.9
1375.56	26215.6
1377.14	26204.3
1378.72	26231.6
1380.31	26138.1
1381.89	26126.4
1383.47	26045
1385.05	26082.5
1386.63	26078.4
1388.21	26088
1389.79	26118.6
1391.37	26063.7
1392.95	26079.2
1394.53	25988
1396.11	25885.8
1397.69	25920.5
1399.27	25903.3
1400.85	25909.9
1402.42	25930.3
1404	25842.7
1405.58	25856.3
1407.16	25893.8
1408.73	25890.9
1410.31	25849.8
1411.89	25851.3
1413.46	25856.1
1415.04	25940.7
1416.61	26026
1418.19	25931.2
1419.76	25966.3
1421.34	25905
1422.91	25897.1
1424.49	25976.2
1426.06	25999.8
1427.63	26035
1429.21	26136.2
1430.78	26315.9
1432.35	26397
1433.92	26611.9
1435.49	26727.8
1437.07	26862.4
1438.64	26962.2
1440.21	26933.8
1441.78	26936.2
1443.35	26905.1
1444.92	26835.3
1446.49	26769.4
1448.06	26740
1449.63	26801.2
1451.2	26637.9
1452.76	26583.5
1454.33	26534.9
1455.9	26499.9
1457.47	26382.6
1459.03	26406.9
1460.6	26322.9
1462.17	26237.5
1463.74	26144.6
1465.3	26082.9
1466.87	25931.7
1468.43	25870.2
1470	25728.5
1471.56	25649
1473.13	25525.7
1474.69	25366.5
1476.26	25405.4
1477.82	25312.6
1479.38	25177.3
1480.94	25116.3
1482.51	25112.2
1484.07	25110.4
1485.63	25132.1
1487.2	24944.9
1488.76	25042.5
1490.32	25044.4
1491.88	25010.6
1493.44	24995.8
1495	25161.7
1496.56	25050.9
1498.12	25174.1
1499.68	25130.9
1501.24	25059.9
1502.8	25046.6
1504.36	25124
1505.91	25320.9
1507.47	25134.3
1509.03	25171.5
1510.59	25270.8
1512.14	25358.1
1513.7	25347.5
1515.26	25418.2
1516.81	25546.8
1518.37	25657.4
1519.93	25703.6
1521.48	25671.7
1523.04	25702.8
1524.59	25619.8
1526.15	25511.5
1527.7	25324.6
1529.25	25197.6
1530.81	25076.5
1532.36	24951
1533.91	24773.2
1535.47	24638.9
1537.02	24570.9
1538.57	24531.2
1540.12	24522.1
1541.67	24480.2
1543.23	24468.9
1544.78	24408.2
1546.33	24418.2
1547.88	24329
1549.43	24295.5
1550.98	24259.4
1552.53	24228.6
1554.08	24256.3
1555.63	24305.3
1557.18	24307.8
1558.72	24237.9
1560.27	24126.3
1561.82	24251.5
1563.37	24214.6
1564.91	24155.1
1566.46	24169.7
1568.01	24212.9
1569.55	24173.7
1571.1	24191.4
1572.64	24189.7
1574.19	24152.5
1575.74	24103.9
1577.28	24058.3
1578.83	24085.4
1580.37	24075.3
1581.91	24064.4
1583.46	24106.6
1585	24030.9
1586.54	24069.7
1588.09	24001.8
1589.63	24025.3
1591.17	23998.6
1592.71	23935.9
1594.25	23990.9
1595.79	23963
1597.34	23943.9
1598.88	23958.4
1600.42	23990.5
1601.96	23936.7
1603.5	23983.2
1605.04	23859.1
1606.58	23871.1
1608.12	23877.1
1609.65	23841.7
1611.19	23779.9
1612.73	23758
1614.27	23775.9
1615.8	23754.3
1617.34	23740.2
1618.88	23679
1620.42	23613.7
1621.95	23632.2
1623.49	23635.2
1625.03	23585.1
1626.56	23581.1
1628.1	23582.3
1629.63	23591.2
1631.17	23599.1
1632.7	23587.5
1634.23	23560.8
1635.77	23552.3
1637.3	23564.9
1638.83	23547.5
1640.37	23584.8
1641.9	23544.7
1643.43	23521.3
1644.96	23598.3
1646.5	23655.8
1648.03	23682.2
1649.56	23807.1
1651.09	23794.2
1652.62	23930.2
1654.15	23899.1
1655.68	23886.7
1657.21	23749.6
1658.74	23751.6
1660.27	23575.2
1661.8	23555.9
1663.32	23456.3
1664.85	23445.1
1666.38	23363.3
1667.91	23368
1669.44	23381.2
1670.96	23274.3
1672.49	23320.1
1674.02	23256.2
1675.54	23122.7
1677.07	23072
1678.59	23023.9
1680.12	23004.6
1681.65	22876.8
1683.17	22876.8
1684.69	22820.4
1686.22	22795.7
1687.74	22781.6
1689.27	22707.2
1690.79	22640.8
1692.31	22627.2
1693.84	22674.8
1695.36	22568.7
1696.88	22560
1698.4	22559.7
1699.92	22459.1
1701.45	22385.6
1702.97	22368.9
1704.49	22348.1
1706.01	22342.6
1707.53	22330
1709.05	22226.7
1710.57	22233.3
1712.09	22168
1713.61	22141.8
1715.13	22117.8
1716.65	22187.6
1718.16	22134.1
1719.68	22115.9
1721.2	22046.7
1722.72	22085.7
1724.23	22042.8
1725.75	22054.2
1727.27	21964.3
1728.78	21991.1
1730.3	22009.9
1731.82	22030.8
1733.33	21980.7
1734.84	22057.1
1736.36	21959.5
1737.87	21969.2
1739.39	22025.7
1740.9	22053.5
1742.42	21999.8
1743.93	21993.4
1745.44	22013.5
1746.96	21954
1748.47	21994.2
1749.98	21958.5
1751.49	21939.2
1753	21856.2
1754.51	21848.9
1756.03	21706.9
1757.54	21738.6
1759.05	21649.5
1760.56	21616.8
1762.07	21550.1
1763.58	21574
1765.09	21480
1766.6	21522.4
1768.11	21503.5
1769.61	21416.9
1771.12	21471.2
1772.63	21461.8
1774.14	21433.5
1775.65	21417.8
1777.15	21406.3
1778.66	21373.4
1780.17	21409
1781.67	21346.6
1783.18	21327.2
1784.68	21285.4
1786.19	21351.3
1787.7	21340.2
1789.2	21300.2
1790.71	21311.2
1792.21	21258.5
1793.71	21217.9
1795.22	21280.8
1796.72	21267.3
1798.22	21183.6
1799.73	21131.4
1801.23	21147.5
1802.73	21072.9
1804.23	21111.1
1805.74	21084.2
1807.24	21008.8
1808.74	21084.5
1810.24	21070.7
1811.74	21042.8
1813.24	21052.8
1814.74	20988.3
1816.24	21015.1
1817.74	20950.1
1819.24	20928.3
1820.74	20877.5
1822.24	20847.4
1823.74	20895
1825.23	20852.8
1826.73	20878.3
1828.23	20835.9
1829.73	20853.4
1831.22	20802.2
1832.72	20772.3
1834.22	20778.6
1835.71	20743.7
1837.21	20746.9
1838.71	20667.8
1840.2	20751.1
1841.7	20706.8
1843.19	20735.2
1844.68	20742.6
1846.18	20673.6
1847.67	20671.6
1849.17	20620.2
1850.66	20649.9
1852.15	20587.2
1853.65	20552.7
1855.14	20538.9
1856.63	20540.6
1858.12	20458
1859.62	20498.1
1861.11	20502.2
1862.6	20428.4
1864.09	20456.4
1865.58	20450.4
1867.07	20379.5
1868.56	20425.7
1870.05	20332.9
1871.54	20416.4
1873.03	20331
1874.52	20351.5
1876.01	20315.5
1877.49	20333
1878.98	20258.1
1880.47	20227.8
1881.96	20208.2
1883.45	20133.7
1884.93	20126.1
1886.42	20131.6
1887.91	20062.2
1889.39	20084.9
1890.88	20053.9
1892.36	20049.9
1893.85	20054.8
1895.34	20001.6
1896.82	19914.3
1898.3	19883.9
1899.79	19877.3
1901.27	19800.2
1902.76	19760.2
1904.24	19623.4
1905.72	19549.6
1907.2	19442.9
1908.69	19435.3
1910.17	19365.5
1911.65	19280.5
1913.13	19205.3
1914.62	19119.3
1916.1	19076.4
1917.58	18979.3
1919.06	18894.3
1920.54	18858.6
1922.02	18751
1923.5	18682.1
1924.98	18595.1
1926.46	18602.4
1927.94	18540.4
1929.42	18466.6
1930.89	18396.7
1932.37	18352.5
1933.85	18260.1
1935.33	18236.2
1936.81	18122.8
1938.28	18069.9
1939.76	17995.3
1941.24	17948
1942.71	17875.5
1944.19	17803
1945.66	17805.3
1947.14	17705.7
1948.61	17634
1950.09	17565.5
1951.57	17428.1
1953.04	17380.7
1954.51	17279.7
1955.99	17229.3
1957.46	17120.7
1958.93	17057.9
1960.41	17019.7
1961.88	17007.2
1963.35	16943.3
1964.82	16860.1
1966.3	16798.7
1967.77	16749.6
1969.24	16700.6
1970.71	16600.7
1972.18	16564
1973.65	16512.2
1975.12	16454.4
1976.59	16404
1978.06	16342.2
1979.53	16273.7
1981	16253.3
1982.47	16196.4
1983.94	16131.4
1985.41	16055.6
1986.87	16015.3
1988.34	15964.3
1989.81	15886.3
1991.28	15804.3
1992.74	15760.1
1994.21	15699.2
1995.68	15632.7
1997.14	15553.2
1998.61	15532.2
2000.07	15469
2001.54	15388.7
2003.01	15370.9
2004.47	15286.1
2005.94	15249.3
2007.4	15236.9
2008.86	15200
2010.33	15118.9
2011.79	15097.8
2013.25	15056.8
2014.72	15011.3
2016.18	14954.1
2017.64	14887.9
2019.1	14839.6
2020.57	14783.9
2022.03	14752.6
2023.49	14680.7
2024.95	14627.8
2026.41	14588.6
2027.87	14548.8
2029.33	14511.4
2030.79	14456.7
2032.25	14403.4
2033.71	14370.4
2035.17	14314.3
2036.63	14296.2
2038.09	14265.3
2039.54	14197.3
2041	14170.7
2042.46	14149
2043.92	14091.4
2045.38	14057.7
2045.86	14043.6
2047.32	14038
2048.79	14019.5
2050.25	14023.9
2051.71	13962
2053.17	13973.5
2054.64	13995.6
2056.1	14006.4
2057.56	13969.7
2059.02	13948.1
2060.48	13961
2061.94	13914
2063.4	13925.9
2064.86	13933.4
2066.32	13903.6
2067.78	13928.3
2069.24	13905
2070.7	13866.2
2072.16	13881.3
2073.62	13867.8
2075.08	13850.3
2076.54	13821.9
2077.99	13828.1
2079.45	13801.7
2080.91	13789.4
2082.37	13821.8
2083.82	13815.6
2085.28	13772.2
2086.74	13759.6
2088.19	13755.9
2089.65	13722.3
2091.1	13726.6
2092.56	13734.9
2094.01	13701.9
2095.47	13647.7
2096.92	13651.6
2098.38	13679.5
2099.83	13615.3
2101.29	13633.1
2102.74	13596.5
2104.19	13627.3
2105.64	13594
2107.1	13564.9
2108.55	13590.6
2110	13564.5
2111.45	13508.3
2112.91	13479.9
2114.36	13518.9
2115.81	13500.5
2117.26	13470.1
2118.71	13468
2120.16	13466.9
2121.61	13444.1
2123.06	13435.8
2124.51	13415.2
2125.96	13444.3
2127.4	13380.5
2128.85	13384.9
2130.3	13383.6
2131.75	13398.2
2133.2	13410.9
2134.65	13368.5
2136.09	13320.3
2137.54	13398.4
2138.99	13374.1
2140.43	13320.4
2141.88	13323
2143.32	13313.8
2144.77	13294.8
2146.22	13297.2
2147.66	13274.2
2149.11	13283.8
2150.55	13294.1
2152	13274.5
2153.44	13270.1
2154.88	13256.4
2156.33	13230.1
2157.77	13251
2159.21	13236.5
2160.66	13198.2
2162.1	13194.9
2163.54	13223.6
2164.98	13188
2166.43	13181
2167.87	13183.1
2169.31	13193.7
2170.75	13204.8
2172.19	13156.7
2173.63	13176.8
2175.07	13135.6
2176.51	13153.7
2177.95	13134
2179.39	13075.1
2180.83	13105.6
2182.27	13093.8
2183.71	13053.4
2185.14	13055.1
2186.58	13030.5
2188.02	13010.8
2189.46	13002.7
2190.9	13026.2
2192.33	13018.9
2193.77	12972.3
2195.21	13027.1
2196.64	13002.6
2198.08	12982.1
2199.51	12983.1
2200.95	12975
2202.39	12948.3
2203.82	12921.6
2205.25	12937
2206.69	12901.3
2208.12	12939.5
2209.56	12891.7
2210.99	12897.2
2212.42	12860.3
2213.86	12832.9
2215.29	12809
2216.72	12769.2
2218.15	12792.8
2219.59	12778
2221.02	12757.5
2222.45	12699
2223.88	12752.1
2225.31	12706.7
2226.74	12725.5
2228.17	12661.5
2229.6	12659.3
2231.03	12644.7
2232.46	12695.5
2233.89	12626.5
2235.32	12633.3
2236.75	12593
2238.18	12599.5
2239.61	12581
2241.04	12557.1
2242.46	12532.7
2243.89	12534.2
2245.32	12553.1
2246.75	12486.5
2248.17	12486.8
2249.6	12517.9
2251.03	12474.2
2252.45	12433.4
2253.88	12455.8
2255.31	12461.1
2256.73	12371.5
2258.16	12365.2
2259.58	12369.2
2261	12336.2
2262.43	12307.4
2263.85	12341.8
2265.28	12260.1
2266.7	12256.2
2268.12	12243.6
2269.55	12215.8
2270.97	12253.1
2272.39	12202.2
2273.81	12167.2
2275.24	12157.3
2276.66	12163.7
2278.08	12158.7
2279.5	12168.8
2280.92	12092.5
2282.34	12106.9
2283.76	12060.4
2285.18	12052.1
2286.6	12071.7
2288.02	12037.5
2289.44	12021.7
2290.86	12055.2
2292.28	12003.2
2293.7	11994.3
2295.12	11950.5
2296.54	11975
2297.95	11956.4
2299.37	11936.7
2300.79	11888.2
2302.21	11893
2303.62	11873.9
2305.04	11849.3
2306.46	11832.8
2307.87	11773.8
2309.29	11799.1
2310.7	11808.6
2312.12	11792.5
2313.53	11800.6
2314.95	11723.3
2316.36	11724.6
2317.78	11721
2319.19	11722.7
2320.61	11724.4
2322.02	11635.7
2323.43	11713.3
2324.85	11706
2326.26	11751.7
2327.67	11820.8
2329.08	11842.8
2330.5	11885.6
2331.91	11762.3
2333.32	11631.1
2334.73	11581.8
2336.14	11533.4
2337.55	11517.3
2338.96	11539.4
2340.37	11538.1
2341.78	11509.2
2343.19	11460.5
2344.6	11469.8
2346.01	11463
2347.42	11428.7
2348.83	11432.3
2350.24	11390.2
2351.65	11399.3
2353.05	11373
2354.46	11375.6
2355.87	11323.4
2357.28	11284.4
2358.68	11318.9
2360.09	11298.7
2361.5	11274.5
2362.9	11273.5
2364.31	11254.3
2365.71	11254.9
2367.12	11257.7
2368.52	11230.4
2369.93	11228.2
2371.33	11183.5
2372.74	11174.1
2374.14	11154.3
2375.55	11148.3
2376.95	11163.4
2378.35	11105.4
2379.76	11123.1
2381.16	11119.1
2382.56	11083.4
2383.96	11081.3
2385.37	11076.5
2386.77	11013.5
2388.17	11049.4
2389.57	11065.1
2390.97	11034.4
2392.37	11051.8
2393.77	10958.4
2395.17	11005.3
2396.57	10982
2397.97	10956.8
2399.37	10964.1
2400.77	10966.2
2402.17	10943.5
2403.57	10916.9
2404.97	10898.1
2406.37	10892.4
2407.77	10882.5
2409.16	10849.8
2410.56	10876.2
2411.96	10805.2
2413.36	10848.1
2414.75	10833.3
2416.15	10816.2
2417.55	10809.2
2418.94	10811.7
2420.34	10790.4
2421.73	10768.5
2423.13	10760.4
2424.52	10747.2
2425.92	10717.7
2427.31	10728
2428.71	10738
2430.1	10701
2431.5	10704.4
2432.89	10713.9
2434.28	10668
2435.68	10704.7
2437.07	10622.1
2438.46	10631
2439.85	10630.7
2441.25	10598.4
2442.64	10613
2444.03	10613.2
2445.42	10579.6
2446.81	10579.1
2448.2	10593.6
2449.59	10583.7
2450.98	10575.4
2452.37	10515
2453.76	10528
2455.15	10535.3
2456.54	10505.1
2457.93	10517.5
2459.32	10544.8
2460.71	10508.4
2462.1	10498.2
2463.49	10443.8
2464.87	10428.8
2466.26	10427
2467.65	10427.8
2469.04	10399.7
2470.42	10405.8
2471.81	10398.1
2473.2	10353.5
2474.58	10361.7
2475.97	10344.7
2477.35	10348.6
2478.74	10353.6
2480.12	10308.6
2481.51	10328.9
2482.89	10304.7
2484.28	10273.9
2485.66	10259
2487.05	10254.5
2488.43	10272.6
2489.81	10255.9
2491.2	10246.9
2492.58	10230.2
2493.96	10198.8
2495.34	10193.1
2496.73	10196.2
2498.11	10165.1
2499.49	10176.5
2500.87	10180.4
2502.25	10136
2503.63	10148.8
2505.01	10139.7
2506.39	10109.1
2507.77	10109.3
2509.15	10087
2510.53	10087.1
2511.91	10099.7
2513.29	10078
2514.67	10045.4
2516.05	10024.5
2517.43	10054.3
2518.81	10002.2
2520.19	10029.4
2521.56	9998.18
2522.94	9974.91
2524.32	9980.7
2525.7	10010.4
2527.07	9962.69
2528.45	9972.94
2529.82	9934.17
2531.2	9952.1
2532.58	9951.25
2533.95	9925.12
2535.33	9902.2
2536.7	9926.72
2538.08	9862.55
2539.45	9899.96
2540.82	9874.8
2542.2	9866.98
2543.57	9835.35
2544.95	9851.29
2546.32	9810.51
2547.69	9783
2549.07	9773.12
2550.44	9728.45
2551.81	9755.58
2553.18	9748.04
2554.55	9729.33
2555.93	9681.35
2557.3	9719.4
2558.67	9751.4
2560.04	9718.57
2561.41	9675.28
2562.78	9702.3
2564.15	9683.2
2565.52	9661.26
2566.89	9637.36
2568.26	9638.54
2569.63	9625.51
2571	9617.26
2572.36	9622.79
2573.73	9609.13
2575.1	9623.52
2576.47	9597.3
2577.84	9567.07
2579.2	9576.01
2580.57	9564.49
2581.94	9565.75
2583.31	9553.11
2584.67	9571.63
2586.04	9543.46
2587.4	9548.48
2588.77	9563.45
2590.14	9543.51
2591.5	9505.44
2592.87	9506.15
2594.23	9536.44
2595.6	9542.25
2596.96	9482.74
2598.32	9485.87
2599.69	9443.44
2601.05	9440.8
2602.41	9447.6
2603.78	9442.94
2605.14	9421.33
2606.5	9447.01
2607.86	9470.67
2609.23	9440.15
2610.59	9413.87
2611.95	9415.1
2613.31	9395.24
2614.67	9358.49
2616.03	9379.69
2617.4	9362.78
2618.75	9348.38
2620.11	9321.93
2621.48	9329.21
2622.83	9333.38
2624.19	9317.81
2625.55	9300.11
2626.91	9329.07
2628.27	9276.81
2629.63	9295.1
2630.99	9261.41
2632.35	9264.18
2633.7	9234.99
2635.06	9196.94
2636.42	9263.26
2637.77	9227.6
2639.13	9246.67
2640.49	9186.97
2641.84	9219.35
2643.2	9140.4
2644.56	9184.06
2645.91	9175.08
2647.27	9152.11
2648.62	9131.44
2649.98	9166.02
2651.33	9179.3
2652.69	9134.25
2654.04	9127.23
2655.4	9121.79
2656.75	9109.29
2658.1	9111.54
2659.45	9101.01
2660.81	9112.76
2662.16	9090
2663.51	9048.01
2664.86	9041.03
2666.22	9079.08
2667.57	9067.75
2668.92	9047
2670.27	9021.96
2671.62	9045.49
2672.97	9036.46
2674.32	9016.78
2675.67	9023.01
2677.02	8990.98
2678.37	8956.29
2679.72	8952.57
2681.07	8966.84
2682.42	8957.51
2683.77	8919.98
2685.12	8933.2
2686.47	8908.43
2687.81	8942.97
2689.16	8931.57
2690.51	8924.7
2691.86	8896.55
2693.21	8876.35
2694.55	8887.76
2695.9	8904.32
2697.25	8845
2698.59	8862.27
2699.94	8864.47
2701.28	8864.91
2702.63	8828.02
2703.97	8871.73
2705.32	8837.03
2706.66	8853.01
2708.01	8828.54
2709.35	8843.23
2710.7	8837.08
2712.04	8790.16
2713.39	8797.49
2714.73	8811.62
2716.07	8775.95
2717.41	8752.87
2718.76	8760.32
2720.1	8709.63
2721.44	8758.66
2722.78	8730.05
2724.12	8722.52
2725.47	8724.32
2726.81	8737.54
2728.15	8708.62
2729.49	8677.31
2730.83	8711.66
2732.17	8729.18
2733.51	8661.39
2734.85	8663.71
2736.19	8657.66
2737.53	8638.19
2738.87	8583.1
2740.21	8565.66
2741.55	8564.59
2742.88	8581.92
2744.22	8572.82
2745.56	8555
2746.9	8542.23
2748.24	8530.74
2749.57	8509.95
2750.91	8499.64
2752.25	8485.87
2753.58	8478.97
2754.92	8448.46
2756.25	8464.97
2757.59	8467.06
2758.93	8441.6
2760.26	8427.15
2761.6	8409.72
2762.93	8417.48
2764.27	8416.76
2765.6	8393.37
2766.93	8371.41
2768.27	8358.25
2769.6	8365.89
2770.94	8379.64
2772.27	8319.04
2773.6	8346.28
2774.93	8288.44
2776.27	8311.17
2777.6	8294.86
2778.93	8312.28
2780.26	8267.39
2781.59	8239.34
2782.93	8251.93
2784.26	8254.27
2785.59	8189.44
2786.92	8212.9
2788.25	8182.76
2789.58	8167.94
2790.91	8166.51
2792.24	8160.27
2793.57	8163.8
2794.9	8173.6
2796.23	8194.09
2797.56	8189.32
2798.88	8183.73
2800.21	8150.85
2801.54	8151.64
2802.87	8140.91
2804.2	8103.83
2805.52	8088.82
2806.85	8084.79
2808.18	8072.75
2809.5	8074.37
2810.83	8059.91
2812.16	8047.41
2813.48	8091.17
2814.81	8077.81
2816.13	8051.96
2817.46	8052.26
2818.78	8039.17
2820.11	8057.03
2821.43	8019.62
2822.76	8039.42
2824.08	8048.61
2825.4	8054.37
2826.73	8018.51
2828.05	8019.5
2829.37	8028.35
2830.7	8024.74
2832.02	8075.4
2833.34	8041.95
2834.66	8060.51
2835.99	8115.75
2837.31	8091.12
2838.63	8155.56
2839.95	8182.86
2841.27	8223.42
2842.59	8277.36
2843.91	8365.01
2845.23	8512.67
2846.55	8557.09
2847.87	8703.09
2849.19	8774.01
2850.51	8867.69
2851.83	8890.97
2853.15	8909.23
2854.47	8934.31
2855.79	8858.88
2857.11	8835.41
2858.43	8758.03
2859.74	8758.71
2861.06	8702.43
2862.38	8694.82
2863.69	8639.15
2865.01	8632.17
2866.33	8605.03
2867.65	8615.04
2868.96	8647.27
2870.28	8633.88
2871.59	8653.38
2872.91	8677.07
2874.22	8677.47
2875.54	8678.3
2876.85	8721.28
2878.17	8693.44
2879.48	8696.21
2880.8	8727.18
2882.11	8729.63
2883.42	8730.96
2884.74	8758.34
2886.05	8764.84
2887.36	8759.33
2888.68	8778.05
2889.99	8799.5
2891.3	8806.33
2892.61	8771.98
2893.93	8800.73
2895.24	8755.99
2896.55	8772.85
2897.86	8772.61
2899.17	8773.69
2900.48	8754.83
2901.79	8737.21
2903.1	8739.94
2904.41	8722.48
2905.72	8716.22
2907.03	8660.53
2908.34	8674.32
2909.65	8661.76
2910.96	8680.03
2912.27	8629.68
2913.57	8649.53
2914.88	8643.81
2916.19	8625.22
2917.5	8608.02
2918.81	8589.52
2920.11	8596.78
2921.42	8589.96
2922.73	8595.2
2924.03	8588.21
2925.34	8566.2
2926.64	8562.67
2927.95	8553.52
2929.26	8532.28
2930.56	8542.58
2931.87	8507.75
2933.17	8518.22
2934.48	8505.53
2935.78	8486.51
2937.09	8448.54
2938.39	8464.02
2939.69	8414.41
2941	8342.63
2942.3	8275.92
2943.6	8213.15
2944.91	8161
2946.21	8129.83
2947.51	8023.4
2948.81	7988.74
2950.12	7955.43
2951.42	7910.46
2952.72	7904.56
2954.02	7860.4
2955.32	7858.17
2956.62	7816.38
2957.92	7831.88
2959.22	7798.46
2960.52	7760.73
2961.82	7802.34
2963.12	7800.96
2964.42	7725.94
2965.72	7686.88
2967.02	7694.81
2968.32	7672.49
2969.62	7658.54
2970.92	7631.03
2972.21	7581.16
2973.51	7563.05
2974.81	7561.15
2976.11	7518.23
2977.4	7522.53
2978.7	7496.49
2980	7501.39
2981.29	7499.4
2982.59	7506.59
2983.89	7454.59
2985.18	7458.22
2986.48	7381.48
2987.77	7370.4
2989.07	7411.93
2990.36	7344.77
2991.66	7358.67
2992.95	7322.33
2994.25	7330.25
2995.54	7330.02
2996.84	7324.66
2998.13	7296.15
2999.42	7288.07
3000.72	7287.69
3002.01	7271.59
3003.3	7287.56
3004.59	7255.76
3005.89	7289
3007.18	7279.21
3008.47	7266.26
3009.76	7219.81
3011.05	7234.33
3012.34	7204.84
3013.63	7227.62
3014.93	7202.04
3016.22	7185.51
3017.5	7195.8
3018.8	7164.48
3020.09	7176.68
3021.38	7214.04
3022.67	7183.74
3023.95	7193.33
3025.24	7155.97
3026.53	7201.17
3027.82	7134.76
3029.11	7160.72
3030.4	7132.03
3031.68	7132.36
3032.97	7145.25
3034.26	7146.31
3035.54	7111.71
3036.83	7137.62
3038.12	7118.95
3039.4	7122.33
3040.69	7109.69
3041.98	7123.19
3043.26	7136.38
3044.55	7153.47
3045.83	7123.55
3047.12	7143.4
3048.4	7152.18
3049.69	7142.87
3050.97	7150.56
3052.26	7153.13
3053.54	7135.32
3054.82	7180.84
3056.11	7144.42
3057.39	7148.84
3058.67	7159.88
3059.96	7192.58
3061.24	7164.2
3062.52	7174.56
3063.8	7205.09
3065.09	7191.31
3066.37	7221.76
3067.65	7203.39
3068.93	7165.33
3070.21	7198.29
3071.49	7205.47
3072.77	7178
3074.05	7197.43
3075.33	7205.06
3076.61	7186.86
3077.89	7189.36
3079.17	7194.48
3080.45	7203.14
3081.73	7196.28
3083.01	7204.51
3084.29	7228.12
3085.57	7225.73
3086.84	7204.32
3088.12	7203.3
3089.4	7254.68
3090.68	7251.83
3091.95	7242.04
3093.23	7240.23
3094.51	7242.75
3095.79	7234.73
3097.06	7277.41
3098.34	7255.48
3099.61	7268.96
3100.89	7256.66
3102.17	7250.44
3103.44	7271.22
3104.72	7299.19
3105.99	7303.64
3107.27	7315.39
3108.54	7338.53
3109.81	7341.2
3111.09	7335.1
3112.36	7349.57
3113.63	7330.32
3114.91	7376.06
3116.18	7380.19
3117.46	7380.69
3118.73	7371.63
3120	7387.44
3121.27	7370.73
3122.54	7400.72
3123.82	7406.15
3125.09	7419.67
3126.36	7450.56
3127.63	7432.22
3128.9	7456.3
3130.17	7481.64
3131.44	7499.57
3132.71	7503.7
3133.98	7563.36
3135.25	7512.61
3136.52	7546.98
3137.79	7545.86
3139.06	7553.53
3140.33	7534.11
3141.6	7544.74
3142.86	7545.52
3144.13	7592.5
3145.4	7579.38
3146.67	7596.96
3147.94	7613.07
3149.2	7658.13
3150.47	7637.2
3151.74	7665.83
3153	7678.79
3154.27	7644.33
3155.54	7699.11
3156.8	7699.7
3158.07	7677.83
3159.34	7711.52
3160.6	7676.07
3161.86	7733.18
3163.13	7733.56
3164.4	7713.83
3165.66	7735.63
3166.92	7759.96
3168.19	7755.68
3169.45	7803.42
3170.72	7784.86
3171.98	7799.48
3173.24	7785.14
3174.5	7801.62
3175.77	7807.11
3177.03	7847.17
3178.29	7845.77
3179.56	7837
3180.82	7873.04
3182.08	7867.65
3183.34	7875.95
3184.6	7884.47
3185.86	7906.21
3187.12	7912.79
3188.38	7922.58
3189.64	7947.06
3190.9	7953.29
3192.16	7971.34
3193.42	7948.92
3194.68	7971.34
3195.94	7980.75
3197.2	7977.16
3198.46	7985.35
3199.72	7976.1
3200.98	8007.3
3202.24	8009.63
3203.49	8015.5
3204.75	8034.47
3206.01	8021.52
3207.27	8046.27
3208.52	8034.09
3209.78	8053.84
3211.04	8060.35
3212.29	8060.98
3213.55	8041.23
3214.81	8054.1
3216.06	8022.53
3217.32	8024.74
3218.57	8053.7
3219.83	8072.88
3221.08	8059.35
3222.34	8085.3
3223.59	8086.22
3224.85	8093.65
3226.1	8075.08
3227.35	8095.96
3228.61	8094.6
3229.86	8099.13
3231.11	8107.57
3232.37	8106.99
3233.62	8105.31
3234.87	8105.92
3236.12	8105.64
3237.38	8101.93
3238.63	8111.54
3239.88	8104.07
3241.13	8095.41
3242.38	8087.42
3243.63	8091.56
3244.89	8091.22
3246.14	8089.99
3247.39	8100.63
3248.64	8087.13
3249.89	8086.71
3251.14	8094.23
3252.39	8085.4
3253.64	8092.8
3254.88	8070.59
3256.13	8062.35
3257.38	8046.85
3258.63	8045.95
3259.88	8046.72
3261.13	8029.36
3262.37	8029.73
3263.62	8031.9
3264.87	8026.14
3266.12	8033.01
3267.36	8035.73
3268.61	8034.89
3269.86	8026.87
3271.1	8024.4
3272.35	8040.68
3273.6	8044.14
3274.84	8030.42
3276.09	8002.36
3277.33	7998.34
3278.58	8008.67
3279.82	7995.81
3281.07	7987.76
3282.31	7985.22
3283.56	7983.62
3284.8	7975.36
3286.04	7974.3
3287.29	7981.78
3288.53	7965.32
3289.77	7952.66
3291.02	7964.32
3292.26	7976.01
3292.9	7973.35
3294.15	7934.42
3295.39	7925.2
3296.64	7928.33
3297.89	7926.65
3299.14	7941.17
3300.38	7911.32
3301.63	7937.53
3302.88	7886.44
3304.12	7912.4
3305.37	7931.47
3306.62	7901.41
3307.86	7885.83
3309.11	7870.06
3310.35	7885.8
3311.6	7882.66
3312.84	7896.95
3314.09	7877.51
3315.34	7889.1
3316.58	7869.33
3317.82	7855.04
3319.07	7837.94
3320.31	7884.8
3321.56	7858.95
3322.8	7852.08
3324.04	7867.89
3325.29	7887.21
3326.53	7864.6
3327.77	7870.34
3329.01	7883.19
3330.25	7871.67
3331.5	7873.87
3332.74	7829.1
3333.98	7826.57
3335.22	7836.46
3336.46	7853.49
3337.7	7829.12
3338.94	7805.94
3340.19	7805.39
3341.42	7798.62
3342.67	7806.02
3343.9	7781.96
3345.15	7775.19
3346.38	7798.65
3347.62	7784.97
3348.86	7777.6
3350.1	7790.89
3351.34	7769.65
3352.58	7788.79
3353.82	7766.21
3355.06	7791.07
3356.29	7780.81
3357.53	7762.9
3358.77	7773.5
3360	7770.62
3361.24	7775.36
3362.48	7741.09
3363.71	7743.64
3364.95	7759.14
3366.19	7758.81
3367.42	7731.67
3368.66	7736.81
3369.89	7731.76
3371.13	7745.39
3372.36	7707.64
3373.6	7738.33
3374.83	7749.96
3376.07	7770
3377.3	7735.09
3378.54	7722.14
3379.77	7676.87
3381	7724.82
3382.24	7711.14
3383.47	7721.93
3384.7	7744.16
3385.94	7708.29
3387.17	7699.12
3388.4	7692.23
3389.63	7711.3
3390.87	7710.15
3392.1	7715.73
3393.33	7675.04
3394.56	7707.72
3395.79	7695.73
3397.02	7665.43
3398.25	7718.46
3399.48	7694.81
3400.71	7710.39
3401.94	7692.17
3403.17	7667.13
3404.4	7667.35
3405.63	7641.03
3406.86	7669.66
3408.09	7655.62
3409.32	7670.88
3410.55	7670.03
3411.78	7637.46
3413	7652.27
3414.23	7640.82
3415.46	7633.25
3416.69	7629.28
3417.92	7614.71
3419.14	7580.2
3420.37	7595.73
3421.6	7616.43
3422.82	7613.37
3424.05	7592.37
3425.27	7575.37
3426.5	7573.21
3427.73	7569.7
3428.95	7555.75
3430.18	7599.99
3431.4	7566.11
3432.63	7583.8
3433.85	7543.1
3435.08	7540.67
3436.3	7546
3437.53	7561.45
3438.75	7533.79
3439.97	7511.32
3441.2	7478.21
3442.42	7490.44
3443.64	7487.09
3444.86	7480.43
3446.09	7467.62
3447.31	7475.34
3448.53	7428.4
3449.75	7448.03
3450.98	7433.97
3452.2	7436.43
3453.42	7423.16
3454.64	7460.92
3455.86	7405.19
3457.08	7389.69
3458.3	7358.33
3459.52	7385.1
3460.74	7398.02
3461.96	7389.93
3463.18	7377.81
3464.4	7357.14
3465.62	7359.67
3466.84	7334.99
3468.06	7331.93
3469.28	7335.33
3470.5	7309.97
3471.72	7302.64
3472.93	7303.68
3474.15	7262.16
3475.37	7248.63
3476.59	7259.35
3477.8	7233.09
3479.02	7239.32
3480.24	7197.63
3481.45	7203.89
3482.67	7175.23
3483.89	7166.13
3485.1	7165.81
3486.32	7169.56
3487.53	7118.35
3488.75	7108.98
3489.96	7140.22
3491.18	7134.46
3492.39	7116.83
3493.61	7083.63
3494.82	7064.71
3496.04	7109.48
3497.25	7076.9
3498.47	7021.78
3499.68	7029.72
