#Acq. time (s)=	10
#Accumulations=	10
#Range (cm-¹)=	400...3500
#Windows=	3
#Auto scanning=	Off
#Autofocus=	Off
#AutoExposure=	Off
#Spike filter=	Multiple accum.
#Delay time (s)=	0
#Binning=	1
#Readout mode=	Signal
#DeNoise=	Off
#ICS correction=	On
#Dark correction=	Off
#Inst. Process=	Off
#Detector Gain=	Best Dynamic Range
#Detector ADC=	45 kHz       
#Detector temperature (°C)=	-60.1
#Instrument=	LabRAM HR Evol
#Detector=	Syncerity OE
#Objective=	x50_VIS_LWD
#Grating=	600 (500nm)
#ND Filter=	50%
#Laser=	532nm_Edge
#Hole=	199.981
#Range=	Visible
#E-Cal_Neon=	0
#StageXY=	75x50mm Scan+
#StageZ=	Z motor
#X (µm)=	0
#Y (µm)=	0
#Z (µm)=	642.8
#Spectral res.(cm-¹)=	12.8
#Full time(mm:ss)=	5:19
#AC=	Calibrated 2025-07-01 10:31
#Project=	
#Sample=	
#Site=	
#Title=	D_1
#Remark=	
#Date=	01.07.2025 15:45 (India Standard Time)
#Acquired=	01.07.2025 15:45:02 (India Standard Time)
#AxisType[0]=Intens
#AxisUnit[0]=Cnt
#AxisType[1]=Spectr
#AxisUnit[1]=1/cm
400.083	27465.7
401.858	27274.6
403.63	27185.6
405.405	27193.5
407.176	27246.7
408.949	27372.7
410.72	27234.5
412.493	27181.4
414.263	27223.8
416.033	27150.5
417.805	27273.6
419.574	27185.9
421.345	27220.3
423.114	27236.1
424.884	27132.3
426.652	27236.3
428.421	27231.4
430.188	27164
431.955	27130.7
433.724	27170.2
435.49	27108.1
437.258	27095.9
439.023	27052.7
440.788	26992.3
442.555	27006.1
444.32	26939.2
446.084	26977.8
447.85	26922.2
449.613	26863.2
451.376	26912.5
453.141	26928.3
454.904	26817
456.666	26804.8
458.429	26817.7
460.191	26771.5
461.952	26750.3
463.715	26765.2
465.475	26678.5
467.235	26721.9
468.995	26693.4
470.756	26673.1
472.515	26573.5
474.274	26654.4
476.032	26663.8
477.793	26629.2
479.55	26584.7
481.308	26564.4
483.065	26556.1
484.823	26643.4
486.58	26591.5
488.336	26540.9
490.091	26525.5
491.847	26544.5
493.604	26482.4
495.358	26532.2
497.113	26530
498.867	26469.6
500.62	26578.1
502.374	26558.7
504.127	26560.9
505.881	26589.2
507.634	26571.3
509.386	26528.3
511.137	26535.1
512.888	26583
514.639	26559.5
516.39	26546.8
518.14	26458.8
519.89	26409.5
521.642	26413.4
523.391	26408.3
525.14	26271.2
526.889	26312.7
528.637	26263
530.385	26296.1
532.133	26149.8
533.88	26212.5
535.627	26102.4
537.373	26097.4
539.12	26091.8
540.866	25992.9
542.611	26006.1
544.357	26084.1
546.101	25956
547.846	25957.2
549.59	25907.6
551.334	25946.2
553.078	25859.1
554.821	25902.6
556.564	26005
558.307	25832.1
560.049	25857.7
561.789	25868.5
563.53	25863.9
565.272	25852.4
567.013	25799.5
568.753	25910.8
570.494	25764.8
572.233	25869.2
573.973	25849.2
575.712	25843
577.449	25749.9
579.188	25948.3
580.926	25815.1
582.664	25827.1
584.402	25813.5
586.139	25887.7
587.876	25876.6
589.611	25927.6
591.347	25854.9
593.083	25888.6
594.818	25868.3
596.554	25881.5
598.287	25881.3
600.021	25915.9
601.756	25926.9
603.49	25950
605.221	25851.2
606.955	25870.3
608.688	25826.2
610.42	25749.3
612.15	25629.2
613.882	25592.4
615.614	25631.8
617.345	25618.5
619.074	25477.3
620.805	25448
622.535	25451.8
624.263	25393.2
625.993	25314.4
627.722	25366.8
629.45	25316
631.178	25281.1
632.907	25285.1
634.633	25347.2
636.36	25348.2
638.088	25341.6
639.813	25381.3
641.539	25368.9
643.264	25281.1
644.99	25250.4
646.716	25205.8
648.439	25142.2
650.164	25129.6
651.887	25078.7
653.611	25078.1
655.335	25143.3
657.057	25034.4
658.781	25099.9
660.502	24969.6
662.225	24966.6
663.945	24991.2
665.667	24984.9
667.387	24955.6
669.108	24935.9
670.828	24894.4
672.548	24916.8
674.267	24893
675.987	24822.9
677.705	24833.5
679.424	24848.1
681.142	24772.8
682.86	24888.3
684.577	24848.7
686.293	24845.5
688.011	24870.2
689.727	24839.1
691.444	24865.2
693.159	24868.4
694.875	24890
696.59	24848.4
698.304	24818
700.019	24887.6
701.733	24845.4
703.448	24881.6
705.16	24889.1
706.872	24780.3
708.586	24763.3
710.298	24694.2
712.01	24779.7
713.723	24740.7
715.433	24786.1
717.144	24800.2
718.856	24804.3
720.565	24834.9
722.275	24851.4
723.984	24775.4
725.695	24751.9
727.403	24753.9
729.111	24689.1
730.821	24640.7
732.528	24726.8
734.235	24711.3
735.942	24703.6
737.651	24664.7
739.357	24650.2
741.063	24638.1
742.768	24540.1
744.474	24567.1
746.18	24625.2
747.885	24576
749.589	24607.2
751.293	24627
752.997	24601.3
754.702	24616.6
756.405	24622.7
758.108	24696.4
759.81	24639.6
761.512	24569.8
763.214	24573.6
764.915	24561.1
766.618	24601.8
768.319	24593.3
770.019	24565.1
771.719	24625.2
773.419	24554
775.118	24557.6
776.817	24683.1
778.516	24508.2
780.214	24513.3
781.913	24489.9
783.61	24457.5
785.308	24526.7
787.005	24507.9
788.702	24467.3
790.398	24376.3
792.095	24513.8
793.791	24436.7
795.486	24448.2
797.181	24514.3
798.876	24543.9
800.571	24539.6
802.265	24600.9
803.959	24616.5
805.653	24655.1
807.346	24536.9
809.039	24591.5
810.732	24560.3
812.424	24590.2
814.116	24592.4
815.808	24686.7
817.5	24750.9
819.191	24740.9
820.881	24797.8
822.572	24882.9
824.26	24971.7
825.95	25075.7
827.639	25089.2
829.329	25105.9
831.018	25154.3
832.706	25195.9
834.394	25216.8
836.08	25289.1
837.768	25214.1
839.455	25298.6
841.142	25385.3
842.829	25479.2
844.513	25410.4
846.199	25480.8
847.885	25457.9
849.57	25428.5
851.255	25528.2
852.938	25455.3
854.623	25554.9
856.307	25526.5
857.991	25578
859.672	25722.5
861.355	25654.9
863.038	25786.4
864.719	25789.4
866.401	25780.3
868.083	25724.3
869.765	25708
871.444	25699.2
873.125	25744.4
874.806	25686.4
876.484	25590.2
878.164	25544.9
879.844	25434.9
881.521	25427.2
883.2	25424.4
884.877	25472.3
886.555	25422.2
888.234	25388.8
889.909	25249.7
891.587	25152.1
893.262	24993.2
894.939	24864.2
896.616	24764.6
898.29	24680.2
899.966	24599
901.64	24509.6
903.315	24567.1
904.988	24464.3
906.663	24359.5
908.335	24423.6
910.009	24375.3
911.683	24323.6
913.354	24422.5
915.027	24329.2
916.698	24371.4
918.369	24341
920.041	24295.8
921.711	24240.5
923.383	24162.9
925.052	24120.7
926.723	23985.2
928.391	24041.4
930.062	23933.9
931.73	23840.5
933.399	23895.8
935.067	23889.4
936.734	23848.1
938.403	23896
940.069	23899.9
941.737	24029.1
943.403	23928.9
945.069	23992.7
946.736	23928.2
948.401	23882.9
950.065	23927.8
951.732	23925.9
953.396	23996.6
955.059	23860.1
956.725	24011.2
958.388	23914.3
960.051	23938.6
961.715	23955
963.377	23927.5
965.039	23878.6
966.7	23819.1
968.364	23792.2
970.025	23722.1
971.685	23662.4
973.345	23650.6
975.007	23686.4
976.667	23592.9
978.326	23557.5
979.985	23609.1
981.646	23656.5
983.304	23645.7
984.963	23656.4
986.62	23743.8
988.278	23776.1
989.935	23855.7
991.594	24019.4
993.25	24138.4
994.907	24405.6
996.563	24663.5
998.218	24996.9
999.874	25133.1
1001.53	25132.4
1003.19	25086.7
1004.84	24799.3
1006.49	24573.5
1008.15	24486
1009.8	24259.9
1011.45	24166.8
1013.11	24069.2
1014.76	24079.8
1016.41	24078
1018.06	24017.2
1019.72	23951.9
1021.37	23869.9
1023.02	23885.2
1024.67	23833.1
1026.32	23742.2
1027.97	23768.9
1029.62	23720.2
1031.27	23706.7
1032.92	23707.9
1034.57	23618.5
1036.22	23648.4
1037.86	23636.9
1039.51	23644.6
1041.16	23645.3
1042.81	23663.5
1044.45	23638.3
1046.1	23576
1047.75	23745
1049.39	23783.8
1051.04	23991
1052.68	24079.5
1054.33	24310.7
1055.97	24613.8
1057.62	24866.9
1059.26	24961.2
1060.91	24995.5
1062.55	24860.5
1064.19	24618.3
1065.83	24421.8
1067.48	24405
1069.12	24468.2
1070.76	24450.1
1072.4	24662.3
1074.04	24743.6
1075.68	24771.6
1077.32	24766.2
1078.97	24746.5
1080.61	24618.5
1082.24	24635.6
1083.88	24432.6
1085.52	24349.6
1087.16	24185.1
1088.8	24069.5
1090.44	23930.8
1092.08	23754.3
1093.71	23693.2
1095.35	23472.1
1096.99	23381.2
1098.62	23298.4
1100.26	23220.8
1101.9	23122.4
1103.53	23026.1
1105.17	23040.1
1106.8	23080.9
1108.44	23061.1
1110.07	23150.9
1111.7	23351.5
1113.34	23439.6
1114.97	23542.2
1116.6	23683.5
1118.23	23749.2
1119.87	23904.4
1121.5	23923.1
1123.13	23942.4
1124.76	23934.4
1126.39	23684.9
1128.03	23477
1129.65	23136.2
1131.29	23011.8
1132.91	22865.1
1134.54	22883.2
1136.17	22920
1137.8	22998
1139.43	23149.7
1141.06	23391.8
1142.69	23607.7
1144.31	24005.2
1145.94	24488.8
1147.57	25130.2
1149.19	25849.8
1150.82	26586.7
1152.45	27084
1154.07	27071.9
1155.7	26529.4
1157.32	25759
1158.95	24800.2
1160.57	23966.6
1162.2	23320.6
1163.82	22932.1
1165.44	22722
1167.07	22592.3
1168.69	22495.8
1170.31	22494.3
1171.94	22352.7
1173.56	22280
1175.18	22170.1
1176.8	22092.8
1178.42	22102.8
1180.04	22148
1181.66	22235.3
1183.28	22206.6
1184.9	22262.9
1186.52	22305.2
1188.14	22311.6
1189.76	22272
1191.38	22183.5
1192.99	22086.2
1194.61	21976.1
1196.23	21864.2
1197.85	21785.5
1199.46	21712.4
1201.08	21633
1202.7	21511.4
1204.31	21494.1
1205.93	21529.2
1207.54	21482.2
1209.16	21490
1210.78	21396.4
1212.39	21360
1214	21240.1
1215.62	21183.5
1217.23	21087.4
1218.84	21047.8
1220.46	21053.1
1222.07	21012.1
1223.68	21102.9
1225.29	21007.8
1226.91	21111
1228.52	21113.5
1230.13	21169
1231.74	21229.5
1233.35	21098.4
1234.96	21177
1236.57	21285.9
1238.18	21306.8
1239.79	21286.7
1241.4	21428.1
1243	21512
1244.61	21557.6
1246.22	21608
1247.83	21708.3
1249.43	21775.5
1251.04	21800.5
1252.65	21836.4
1254.25	21917.2
1255.86	21934.9
1257.47	22013.7
1259.07	22085.9
1260.68	22147
1262.28	22163.4
1263.89	22256.9
1265.49	22169.2
1267.09	22161.6
1268.7	22015.6
1270.3	21962.5
1271.9	21942
1273.51	21820.8
1275.11	21894.8
1276.71	21851.8
1278.31	21842.9
1279.91	21866.1
1281.52	21863.3
1283.12	21930.1
1284.72	22094.6
1286.32	22347.8
1287.92	22630.5
1289.52	23077.3
1291.12	23514.8
1292.72	23943.6
1294.31	24192.1
1295.91	24317.4
1297.51	24247.6
1299.11	24151
1300.71	23964.8
1302.3	23797.9
1303.9	23496.4
1305.5	23285.3
1307.09	23002.9
1308.69	22594.7
1310.28	22375.2
1311.88	22072.5
1313.47	21904.4
1315.07	21594.9
1316.66	21374.7
1318.26	21267.2
1319.85	21118.6
1321.44	20931.2
1323.04	20875.9
1324.63	20747.7
1326.22	20642.2
1327.82	20538.9
1329.41	20470.7
1331	20437.1
1332.59	20424.1
1334.18	20437
1335.77	20415.6
1337.36	20296.2
1338.95	20291.7
1340.54	20311.4
1342.13	20204.4
1343.72	20210.3
1345.31	20142
1346.9	20068.3
1348.49	20060.5
1350.07	20182.1
1351.66	20056.6
1353.25	19996.5
1354.84	20006.6
1356.42	19913.9
1358.01	19873.8
1359.6	19839.6
1361.18	19807.7
1362.77	19927.4
1364.35	19946.8
1365.94	19815.1
1367.52	19826.1
1369.11	19778.5
1370.69	19684.8
1372.28	19636.1
1373.86	19533.3
1375.44	19405.1
1377.02	19339.8
1378.61	19352
1380.19	19274.5
1381.77	19257.1
1383.35	19260.8
1384.93	19175.8
1386.52	19235.3
1388.1	19221.3
1389.68	19266.5
1391.26	19202.1
1392.84	19215.1
1394.41	19184.7
1396	19205.1
1397.57	19278.8
1399.15	19217.9
1400.73	19255.2
1402.31	19311.1
1403.89	19346.1
1405.46	19354.5
1407.04	19496.9
1408.62	19491.6
1410.19	19624.4
1411.77	19810.1
1413.35	19939.5
1414.92	20090.1
1416.5	20136.7
1418.07	20315.1
1419.65	20446.6
1421.22	20488.2
1422.8	20799.1
1424.37	21151.7
1425.94	21745.5
1427.52	22418.2
1429.09	23221
1430.66	24110.3
1432.23	24803.6
1433.8	25502.6
1435.38	25882.6
1436.95	25928.8
1438.52	25685.9
1440.09	25480.9
1441.66	25075.7
1443.23	24817.8
1444.8	24546.9
1446.37	24393.5
1447.94	24103.9
1449.51	24047.3
1451.08	23794.7
1452.65	23631.8
1454.22	23429.6
1455.78	23260
1457.35	22941.9
1458.92	22631.4
1460.48	22243.7
1462.05	21871.1
1463.62	21567.9
1465.18	21207
1466.75	20784.8
1468.31	20402.9
1469.88	20116
1471.44	19811.3
1473.01	19502.5
1474.57	19323.8
1476.14	19181.2
1477.7	18995.9
1479.26	18900.1
1480.83	18781.1
1482.39	18761.8
1483.95	18688.5
1485.51	18695.1
1487.08	18604.3
1488.64	18620.9
1490.2	18602.1
1491.76	18713
1493.32	18705.8
1494.88	18837.7
1496.44	18855.4
1498	19011
1499.56	19057.5
1501.12	19258.4
1502.68	19482.8
1504.24	19690.4
1505.8	19975.1
1507.35	20354.2
1508.91	20786.3
1510.47	21329.2
1512.03	21806.5
1513.58	22182.9
1515.14	22534.6
1516.69	22806.7
1518.25	22869
1519.81	22848.4
1521.36	22681.5
1522.92	22415.9
1524.47	21852.3
1526.03	21246.6
1527.58	20565.3
1529.13	19857.3
1530.69	19416.9
1532.24	18893.9
1533.79	18592.2
1535.35	18278.2
1536.9	18111.8
1538.45	17998.4
1540	17856.6
1541.55	17727.7
1543.11	17714
1544.66	17603.8
1546.21	17531.4
1547.76	17467.6
1549.31	17422
1550.86	17399.9
1552.41	17385.5
1553.96	17297.1
1555.5	17341.2
1557.05	17223.5
1558.6	17229.8
1560.15	17195.1
1561.7	17194
1563.24	17187.2
1564.79	17207.6
1566.34	17234.3
1567.88	17142.5
1569.43	17156.1
1570.98	17201.7
1572.52	17213.6
1574.07	17194.8
1575.61	17107.9
1577.16	17149.4
1578.7	17167.6
1580.25	17134.2
1581.79	17119.8
1583.34	17127.5
1584.88	17127.3
1586.42	17111.5
1587.96	17137.7
1589.51	17120.4
1591.05	17064.8
1592.59	17039.9
1594.13	17091.4
1595.67	17040.9
1597.21	17090.1
1598.76	17098.5
1600.3	17070.7
1601.83	17053.5
1603.37	17048.4
1604.92	16994.8
1606.45	17031.2
1607.99	16988.2
1609.53	16925.2
1611.07	16941.5
1612.61	16967
1614.15	16879.6
1615.68	16896.5
1617.22	16923.2
1618.76	16868
1620.29	16896.4
1621.83	16885.1
1623.37	16863.8
1624.9	16842.8
1626.44	16899.4
1627.97	16907.2
1629.51	17014.5
1631.04	17092.1
1632.58	17137.2
1634.11	17174.6
1635.64	17181.7
1637.18	17209.1
1638.71	17369.4
1640.24	17517.8
1641.78	17765.4
1643.31	17970.8
1644.84	18336.7
1646.37	18776.3
1647.9	19168.8
1649.44	19521.6
1650.97	19581.9
1652.5	19478.4
1654.03	19139.8
1655.56	18770.7
1657.09	18311.3
1658.62	18000.9
1660.14	17693.7
1661.67	17490.1
1663.2	17359.5
1664.73	17283.8
1666.26	17112.5
1667.79	16981.4
1669.31	16916.3
1670.84	16792.2
1672.37	16665.4
1673.89	16513
1675.42	16387
1676.95	16365
1678.47	16201.6
1680	16164.7
1681.52	16139.7
1683.05	16078.9
1684.57	16019.4
1686.1	15971.3
1687.62	15873.3
1689.14	15839.1
1690.67	15785.4
1692.19	15795.9
1693.71	15758.3
1695.23	15737.3
1696.76	15654.3
1698.28	15599
1699.8	15594
1701.32	15565.6
1702.84	15466.1
1704.36	15520.6
1705.88	15472.7
1707.4	15450.1
1708.92	15452.6
1710.44	15406
1711.96	15396.7
1713.48	15426.8
1715	15367
1716.52	15309.9
1718.04	15350.9
1719.56	15380.2
1721.07	15446.7
1722.59	15496.2
1724.11	15527.5
1725.63	15543.3
1727.14	15642.5
1728.66	15720.5
1730.17	15814
1731.69	15830.5
1733.2	15993.7
1734.72	16109.3
1736.23	16199.5
1737.75	16400.7
1739.26	16356.9
1740.78	16349.2
1742.29	16376.9
1743.8	16236.7
1745.32	16268.1
1746.83	16130.7
1748.34	16111.4
1749.86	15871.4
1751.37	15744.8
1752.88	15615.6
1754.39	15486.7
1755.9	15258.1
1757.41	15175.5
1758.92	15052.2
1760.43	14972.3
1761.94	14909.7
1763.45	14837.3
1764.96	14751.3
1766.47	14812.8
1767.98	14778.1
1769.49	14798.5
1771	14671.5
1772.5	14693.2
1774.01	14640.8
1775.52	14634.9
1777.03	14621.4
1778.53	14603.6
1780.04	14622.4
1781.55	14585.2
1783.05	14518.3
1784.56	14516.4
1786.06	14562
1787.57	14547.3
1789.07	14517.4
1790.58	14486.9
1792.08	14420.2
1793.59	14466.5
1795.09	14444.3
1796.59	14413.4
1798.1	14460
1799.6	14383.2
1801.1	14364.5
1802.61	14348.7
1804.11	14343.9
1805.61	14355.8
1807.11	14246.6
1808.61	14335.2
1810.11	14291.1
1811.61	14279.3
1813.11	14263.5
1814.61	14222.2
1816.11	14227
1817.61	14222.3
1819.11	14160
1820.61	14140.7
1822.11	14212.8
1823.61	14126.4
1825.11	14079.2
1826.6	14165
1828.1	14174.5
1829.6	14138.4
1831.1	14075.3
1832.59	14056.8
1834.09	14096.7
1835.59	14008.6
1837.08	14064.9
1838.58	14046.8
1840.07	14018.1
1841.57	14039.8
1843.06	14031.8
1844.56	14008.2
1846.05	13959.8
1847.54	13976.9
1849.04	13979.7
1850.53	13951
1852.02	13932.3
1853.52	13929.4
1855.01	13870.5
1856.5	13893.7
1857.99	13844.6
1859.49	13902.4
1860.98	13819.5
1862.47	13839.6
1863.96	13881.6
1865.45	13812.3
1866.94	13779.2
1868.43	13790.8
1869.92	13797.4
1871.41	13786.1
1872.9	13726.5
1874.39	13775.7
1875.88	13793.9
1877.37	13724.4
1878.85	13647.4
1880.34	13681.7
1881.83	13714.9
1883.32	13621.7
1884.8	13654.9
1886.29	13606.2
1887.78	13575.3
1889.26	13601.9
1890.75	13578.1
1892.23	13558.3
1893.72	13535.1
1895.21	13556
1896.69	13419.7
1898.17	13539
1899.66	13463.8
1901.14	13431.5
1902.63	13375.8
1904.11	13313.2
1905.59	13244.5
1907.08	13257.3
1908.56	13233.3
1910.04	13182.7
1911.52	13152
1913	13098.7
1914.49	13023.1
1915.97	13001.7
1917.45	12948.7
1918.93	12897.8
1920.41	12858.9
1921.89	12874.3
1923.37	12769.7
1924.85	12788.5
1926.33	12743.6
1927.81	12701
1929.29	12684.4
1930.76	12641
1932.24	12573.5
1933.72	12560.5
1935.2	12542.6
1936.67	12452.4
1938.15	12462.8
1939.63	12405.4
1941.1	12330.7
1942.58	12333.6
1944.06	12334.6
1945.53	12254.9
1947.01	12245.3
1948.48	12180.9
1949.96	12154.7
1951.43	12123.1
1952.91	12050.2
1954.38	11997.7
1955.86	11974.6
1957.33	11909.2
1958.8	11921.6
1960.27	11872.4
1961.75	11828.8
1963.22	11829.5
1964.69	11802.7
1966.16	11745.5
1967.64	11715.2
1969.11	11666.8
1970.58	11629.4
1972.05	11629
1973.52	11594
1974.99	11571.5
1976.46	11541.8
1977.93	11502.2
1979.4	11480.2
1980.87	11462.9
1982.34	11441.5
1983.81	11367.7
1985.27	11334.7
1986.74	11326.3
1988.21	11280.3
1989.68	11240.3
1991.14	11241.7
1992.61	11188.9
1994.08	11136.7
1995.55	11101.6
1997.01	11059
1998.48	11040.6
1999.94	10984.1
2001.41	10979.3
2002.87	10945.2
2004.34	10907.9
2005.8	10913.9
2007.27	10861.9
2008.73	10859.9
2010.19	10835.4
2011.66	10823.4
2013.12	10801.1
2014.58	10785.2
2016.05	10723.1
2017.51	10692.7
2018.97	10666.3
2020.43	10622.8
2021.89	10583.5
2023.36	10576
2024.82	10541
2026.28	10519.8
2027.74	10507.3
2029.2	10474.9
2030.66	10461
2032.12	10426.4
2033.58	10392.8
2035.04	10375.2
2036.49	10342.1
2037.95	10331.2
2039.41	10299.9
2040.87	10273.4
2042.33	10273.3
2043.78	10228.7
2045.24	10227.2
2045.76	10235.8
2047.22	10194.9
2048.69	10159.7
2050.15	10156.5
2051.61	10154.8
2053.07	10157
2054.54	10172.4
2056	10165.7
2057.46	10140.6
2058.92	10146.1
2060.38	10111.7
2061.84	10083.8
2063.3	10102.9
2064.76	10094.6
2066.22	10058.3
2067.68	10074.8
2069.14	10049.2
2070.6	10065
2072.06	10081.7
2073.52	10046.8
2074.98	10021.2
2076.44	10047.8
2077.89	10008.4
2079.35	10020.5
2080.81	10011.7
2082.27	9973.31
2083.72	9977.97
2085.18	9960.41
2086.63	9949.91
2088.09	9951.04
2089.55	9980.81
2091	9935.09
2092.46	9927.24
2093.91	9896.84
2095.37	9918.57
2096.82	9910.21
2098.28	9890.15
2099.73	9858.19
2101.18	9843.01
2102.64	9882.71
2104.09	9851.98
2105.54	9858.39
2106.99	9835.18
2108.45	9815.8
2109.9	9789.76
2111.35	9832.13
2112.8	9787.13
2114.25	9814.82
2115.71	9770.84
2117.16	9759.26
2118.61	9749
2120.06	9779.49
2121.51	9738.5
2122.96	9713.51
2124.4	9740.9
2125.85	9708.2
2127.3	9729.45
2128.75	9692.59
2130.2	9641.74
2131.65	9717.8
2133.09	9639.54
2134.54	9677.83
2135.99	9702.12
2137.44	9658.93
2138.88	9679.36
2140.33	9656.84
2141.78	9664.63
2143.22	9636.99
2144.67	9677.32
2146.11	9609.46
2147.56	9650.11
2149	9598.88
2150.45	9583.41
2151.89	9628.99
2153.34	9594.86
2154.78	9606.99
2156.22	9604.4
2157.67	9600.79
2159.11	9577.14
2160.55	9572.86
2162	9583.85
2163.44	9512.43
2164.88	9509.39
2166.32	9527.71
2167.76	9569.7
2169.2	9620.77
2170.64	9516.51
2172.09	9544.92
2173.53	9516.92
2174.97	9507.87
2176.41	9502.82
2177.85	9475.49
2179.29	9493.12
2180.72	9468.45
2182.16	9447.33
2183.6	9441.26
2185.04	9449.11
2186.48	9391.71
2187.92	9434.56
2189.35	9390.13
2190.79	9382.48
2192.23	9391.09
2193.66	9358.73
2195.1	9363.77
2196.54	9351.72
2197.97	9353.22
2199.41	9309.14
2200.84	9334.62
2202.28	9342.07
2203.71	9325.6
2205.15	9257.22
2206.58	9304.28
2208.02	9331.99
2209.45	9252.47
2210.88	9237.01
2212.32	9220.43
2213.75	9230.6
2215.18	9197.52
2216.62	9274.55
2218.05	9200.43
2219.48	9225.8
2220.91	9190.94
2222.34	9183.58
2223.78	9193.16
2225.21	9160.42
2226.64	9150.29
2228.07	9121.89
2229.5	9107.36
2230.93	9095.53
2232.36	9097.01
2233.79	9102.32
2235.22	9106.04
2236.65	9078.97
2238.07	9043.4
2239.5	9013.65
2240.93	9044.61
2242.36	9034.46
2243.79	8998.17
2245.21	9000.58
2246.64	8992.63
2248.07	8971.62
2249.49	8983.45
2250.92	8965.13
2252.35	8974.87
2253.77	8920.26
2255.2	8904.9
2256.62	8929.58
2258.05	8876.22
2259.47	8888.52
2260.9	8863.57
2262.32	8855.41
2263.75	8852.16
2265.17	8814.56
2266.59	8789.99
2268.02	8806.23
2269.44	8784.55
2270.86	8726.31
2272.29	8796.66
2273.71	8722.63
2275.13	8757.83
2276.55	8717.2
2277.97	8753.55
2279.39	8698.92
2280.81	8669.45
2282.24	8713.63
2283.66	8642.87
2285.08	8666.64
2286.5	8658.73
2287.92	8655.59
2289.34	8648.41
2290.75	8586.4
2292.17	8602.6
2293.59	8604.48
2295.01	8560.78
2296.43	8580.49
2297.85	8583.8
2299.26	8581.36
2300.68	8580.28
2302.1	8585.9
2303.51	8555.6
2304.93	8542.85
2306.35	8507.22
2307.76	8493.92
2309.18	8480.59
2310.6	8473.72
2312.01	8528.37
2313.43	8501.38
2314.84	8479.1
2316.25	8403.04
2317.67	8438.75
2319.08	8378.51
2320.5	8396.77
2321.91	8419.95
2323.32	8439.36
2324.74	8552.57
2326.15	8653.16
2327.56	8655.92
2328.98	8543.48
2330.39	8395.27
2331.8	8308.06
2333.21	8294.09
2334.62	8289.73
2336.03	8260.52
2337.44	8250.38
2338.85	8258.96
2340.26	8246.15
2341.67	8228.51
2343.08	8262.96
2344.49	8221.95
2345.9	8176.4
2347.31	8191.74
2348.72	8166.47
2350.13	8181.54
2351.54	8133.7
2352.94	8148.26
2354.35	8141.24
2355.76	8100.8
2357.17	8120.13
2358.57	8086.19
2359.98	8062.34
2361.39	8104.97
2362.79	8041.05
2364.2	8042.72
2365.6	8027.29
2367.01	8024.87
2368.41	8058.68
2369.82	8021.04
2371.22	8088.38
2372.63	7982.49
2374.03	8008.78
2375.44	7973.81
2376.84	7962.09
2378.24	7918.47
2379.65	7949.23
2381.05	7932.74
2382.45	7923.78
2383.85	7952.79
2385.26	7946.66
2386.66	7938.5
2388.06	7924.08
2389.46	7908.33
2390.86	7889.49
2392.26	7915.79
2393.66	7857.73
2395.06	7868.56
2396.46	7823.97
2397.86	7833.68
2399.26	7841.68
2400.66	7847.79
2402.06	7856.55
2403.46	7832.74
2404.86	7826.43
2406.26	7826.05
2407.66	7794.94
2409.05	7795.16
2410.45	7771.28
2411.85	7740.65
2413.24	7742.14
2414.64	7742.96
2416.04	7738.25
2417.43	7715.81
2418.83	7741.74
2420.23	7727.05
2421.62	7727.37
2423.02	7703.95
2424.41	7717.49
2425.81	7686.92
2427.2	7643.12
2428.6	7671.73
2429.99	7669.17
2431.38	7674.62
2432.78	7641.2
2434.17	7627.66
2435.56	7623.39
2436.96	7634.93
2438.35	7602.57
2439.74	7618.43
2441.13	7637.42
2442.53	7585.75
2443.92	7622.02
2445.31	7593.59
2446.7	7551.6
2448.09	7549.83
2449.48	7575.75
2450.87	7550.47
2452.26	7545.53
2453.65	7505.59
2455.04	7534.8
2456.43	7505.29
2457.82	7455.45
2459.21	7516.58
2460.6	7487.67
2461.98	7486.05
2463.37	7507.79
2464.76	7476.91
2466.15	7438.56
2467.53	7467.21
2468.92	7477.48
2470.31	7404.84
2471.7	7443.44
2473.08	7420.45
2474.47	7393.15
2475.85	7408.46
2477.24	7402.64
2478.63	7391.2
2480.01	7368.33
2481.39	7360.22
2482.78	7341.76
2484.16	7371.59
2485.55	7335.96
2486.93	7351.15
2488.32	7320.04
2489.7	7383.11
2491.08	7321.23
2492.46	7318.93
2493.85	7268.89
2495.23	7345.68
2496.61	7297.34
2497.99	7322.97
2499.38	7290.89
2500.76	7298.28
2502.14	7235.52
2503.52	7252.63
2504.9	7263.33
2506.28	7240.34
2507.66	7206.7
2509.04	7222.28
2510.42	7200.74
2511.8	7229.4
2513.18	7169.67
2514.56	7161.14
2515.94	7211.02
2517.31	7172.33
2518.69	7163.11
2520.07	7185.26
2521.45	7175.25
2522.82	7172.25
2524.2	7156.32
2525.58	7154.19
2526.96	7153.28
2528.33	7162.54
2529.71	7125.63
2531.09	7133.36
2532.46	7116.93
2533.84	7076.63
2535.21	7116.19
2536.59	7093.21
2537.96	7119.84
2539.34	7112.44
2540.71	7082.08
2542.08	7039.6
2543.46	7047.62
2544.83	7052.58
2546.2	7007.55
2547.58	7016.02
2548.95	6991.17
2550.32	6997.66
2551.7	6981.99
2553.07	7000.01
2554.44	6982.68
2555.81	6988.38
2557.18	6991.13
2558.55	6970.77
2559.92	6956.4
2561.29	6970.52
2562.66	6937.29
2564.03	6948.81
2565.4	6927.66
2566.77	6938.09
2568.14	6927.27
2569.51	6926.12
2570.88	6930.9
2572.25	6909.58
2573.62	6895.85
2574.99	6905.4
2576.35	6935.09
2577.72	6876.43
2579.09	6890.53
2580.46	6879.81
2581.82	6873.18
2583.19	6893.43
2584.56	6867.19
2585.92	6895.31
2587.29	6874.62
2588.65	6856.68
2590.02	6916.54
2591.38	6907.41
2592.75	6863.23
2594.11	6866.76
2595.48	6884.29
2596.84	6821.63
2598.21	6837.95
2599.57	6832.62
2600.93	6819.83
2602.3	6827.28
2603.66	6809.76
2605.02	6833.5
2606.39	6857.59
2607.75	6826.89
2609.11	6778.79
2610.47	6808.48
2611.83	6830.36
2613.19	6821.46
2614.56	6779
2615.92	6756.92
2617.28	6744.2
2618.64	6758.82
2620	6765.69
2621.36	6751.41
2622.72	6746.79
2624.08	6729.52
2625.44	6756.54
2626.8	6722.38
2628.15	6735.65
2629.51	6707.47
2630.87	6699.48
2632.23	6738.44
2633.59	6679.3
2634.94	6706.23
2636.3	6707.5
2637.66	6683.23
2639.01	6726.57
2640.37	6694.96
2641.73	6725.33
2643.08	6662.25
2644.44	6689.94
2645.79	6697.9
2647.15	6697.21
2648.5	6709.9
2649.86	6698.46
2651.21	6670.77
2652.57	6695.13
2653.92	6679.33
2655.28	6651.98
2656.63	6659.77
2657.98	6672.43
2659.33	6662.37
2660.69	6703.28
2662.04	6684.37
2663.39	6655.36
2664.75	6680.7
2666.1	6670.99
2667.45	6677.01
2668.8	6703.56
2670.15	6667.68
2671.5	6654.03
2672.85	6660.35
2674.2	6647.67
2675.55	6639.47
2676.9	6590.09
2678.25	6621.84
2679.6	6586.16
2680.95	6625.27
2682.3	6586.8
2683.65	6620.07
2685	6555.38
2686.35	6568.09
2687.7	6607.26
2689.04	6568.39
2690.39	6615.49
2691.74	6553.6
2693.09	6592.95
2694.43	6563.84
2695.78	6561.89
2697.13	6558.56
2698.47	6531.05
2699.82	6548.08
2701.16	6561.78
2702.51	6587.86
2703.85	6588.1
2705.2	6583.09
2706.54	6608.82
2707.89	6620.98
2709.23	6610.48
2710.58	6596.27
2711.92	6630.71
2713.26	6618.09
2714.61	6633.46
2715.95	6662.04
2717.29	6619.86
2718.64	6623.76
2719.98	6606.36
2721.32	6626.55
2722.66	6633.1
2724	6577.91
2725.35	6632.91
2726.69	6635.83
2728.03	6599.26
2729.37	6595.64
2730.71	6590.29
2732.05	6558.81
2733.39	6533.63
2734.73	6477.7
2736.07	6475.71
2737.41	6431.71
2738.75	6440.15
2740.09	6403.38
2741.42	6397.65
2742.76	6357.31
2744.1	6344.52
2745.44	6370.85
2746.78	6320.41
2748.11	6326.4
2749.45	6293.2
2750.79	6277.62
2752.12	6296.28
2753.46	6316.02
2754.8	6246.32
2756.13	6246.01
2757.47	6229.29
2758.81	6230.09
2760.14	6227.49
2761.47	6195.77
2762.81	6182.1
2764.14	6175.47
2765.48	6191.67
2766.81	6208.48
2768.15	6178.35
2769.48	6173.53
2770.81	6179.07
2772.15	6161.11
2773.48	6217.73
2774.81	6204.8
2776.14	6187.78
2777.48	6168.65
2778.81	6144.58
2780.14	6151.83
2781.47	6148.79
2782.8	6147.15
2784.13	6143.37
2785.47	6138.28
2786.8	6127.97
2788.13	6100.27
2789.46	6112.73
2790.79	6079.49
2792.12	6130.45
2793.44	6101.86
2794.77	6096.41
2796.1	6135.04
2797.43	6146.55
2798.76	6102.63
2800.09	6127.13
2801.42	6117.01
2802.74	6119.96
2804.07	6099
2805.4	6120.28
2806.73	6085.82
2808.05	6117.47
2809.38	6115.26
2810.71	6117.79
2812.03	6148.22
2813.36	6142.55
2814.68	6195.12
2816.01	6189.48
2817.33	6216.11
2818.66	6215
2819.98	6203.94
2821.31	6253.93
2822.63	6275.26
2823.96	6340.97
2825.28	6322.85
2826.6	6393.47
2827.93	6430.98
2829.25	6502.07
2830.57	6595.89
2831.9	6725.36
2833.22	6822.47
2834.54	6959.8
2835.86	7168.85
2837.19	7413.09
2838.51	7726.13
2839.83	8078.68
2841.15	8500.39
2842.47	9019.11
2843.79	9478.49
2845.11	9943.75
2846.43	10309.8
2847.75	10532.2
2849.07	10636.6
2850.39	10593.8
2851.71	10526
2853.03	10434.4
2854.35	10287.6
2855.66	10127
2856.98	9950.44
2858.3	9885.27
2859.62	9827.1
2860.94	9661.81
2862.25	9629.7
2863.57	9546.72
2864.89	9544.12
2866.2	9674.55
2867.52	9673.21
2868.84	9812.18
2870.15	9935.77
2871.47	9994.76
2872.78	10061.7
2874.1	10162.5
2875.41	10278.3
2876.73	10424.9
2878.04	10477.1
2879.36	10547.4
2880.67	10606.9
2881.98	10599.3
2883.3	10587.9
2884.61	10566.6
2885.92	10534.1
2887.24	10590.1
2888.55	10616.1
2889.86	10549.2
2891.18	10607.6
2892.49	10795.4
2893.8	10708
2895.11	10580.2
2896.42	10530.6
2897.73	10580
2899.04	10573.3
2900.35	10524.8
2901.67	10471.5
2902.97	10486.6
2904.29	10463.7
2905.59	10474.9
2906.9	10378.3
2908.21	10398.7
2909.52	10393.8
2910.83	10411.3
2912.14	10414
2913.45	10339
2914.76	10357.6
2916.06	10270.6
2917.37	10289.9
2918.68	10294.7
2919.99	10312.4
2921.29	10258.3
2922.6	10332.3
2923.91	10338.7
2925.21	10284
2926.52	10344.8
2927.82	10328
2929.13	10344.4
2930.44	10356.7
2931.74	10234.5
2933.05	10224.5
2934.35	10171.9
2935.65	10080.4
2936.96	9941.3
2938.26	9814.55
2939.57	9580.45
2940.87	9406.39
2942.17	9125.85
2943.48	8903.89
2944.78	8764.33
2946.08	8539.03
2947.38	8404.95
2948.69	8302.34
2949.99	8277.91
2951.29	8197.18
2952.59	8185.58
2953.89	8091.1
2955.19	8026.74
2956.49	8011.2
2957.8	7963.06
2959.1	7854.79
2960.4	7799.89
2961.7	7754.13
2962.99	7683.01
2964.29	7600.63
2965.59	7506.53
2966.89	7411.88
2968.19	7353.98
2969.49	7251.58
2970.79	7194.42
2972.09	7085.81
2973.38	6988.05
2974.68	6969.98
2975.98	6881.16
2977.28	6840.65
2978.57	6811.45
2979.87	6734.54
2981.17	6710.13
2982.46	6654.65
2983.76	6609.03
2985.05	6567.96
2986.35	6503.23
2987.65	6471.99
2988.94	6467.14
2990.24	6392.4
2991.53	6424.56
2992.82	6395.22
2994.12	6381.75
2995.41	6394.09
2996.71	6369.81
2998	6371.04
2999.29	6339.32
3000.59	6340.84
3001.88	6330.99
3003.17	6339.08
3004.47	6314.72
3005.76	6330.65
3007.05	6282.98
3008.34	6298.18
3009.63	6237.97
3010.92	6187.6
3012.21	6145.39
3013.5	6140.14
3014.8	6070.45
3016.09	6079.97
3017.38	6019.16
3018.67	6057.02
3019.96	5993.18
3021.25	5994.1
3022.54	5988.15
3023.82	5933.16
3025.11	5940.59
3026.4	5955.12
3027.69	5895.08
3028.98	5966.52
3030.27	5926.65
3031.55	5931.85
3032.84	5930.72
3034.13	5900.58
3035.42	5913.27
3036.7	5927.27
3037.99	5933.39
3039.28	5928.21
3040.56	5919.61
3041.85	5958.37
3043.13	5931.86
3044.42	5946.87
3045.7	5963.35
3046.99	5952.32
3048.27	5968.79
3049.56	5981.58
3050.84	5978.08
3052.13	5975.8
3053.41	6018.77
3054.69	6051.13
3055.98	6037.68
3057.26	5990.83
3058.54	6040.62
3059.83	6042.69
3061.11	6072.6
3062.39	6093.61
3063.67	6106.17
3064.95	6083.12
3066.24	6143.68
3067.52	6124.34
3068.8	6099.6
3070.08	6115.15
3071.36	6124.34
3072.64	6093.06
3073.92	6097.55
3075.2	6136.31
3076.48	6133.28
3077.76	6118.59
3079.04	6183.12
3080.32	6177.78
3081.6	6149.8
3082.88	6200.12
3084.16	6152.68
3085.44	6210.22
3086.71	6211.78
3087.99	6237.45
3089.27	6255.22
3090.55	6216.11
3091.82	6245.04
3093.1	6284.13
3094.38	6288.24
3095.65	6302.37
3096.93	6291.77
3098.21	6335.54
3099.48	6317.36
3100.76	6364.93
3102.03	6352.18
3103.31	6389.83
3104.58	6443.16
3105.86	6431.71
3107.13	6480.17
3108.41	6472.39
3109.68	6502.68
3110.96	6517.05
3112.23	6567.42
3113.5	6544.87
3114.78	6580.54
3116.05	6603.29
3117.32	6662.38
3118.59	6679.3
3119.87	6657.32
3121.14	6730.12
3122.41	6716.14
3123.68	6737.38
3124.95	6760.45
3126.23	6761.33
3127.5	6790.53
3128.77	6834.92
3130.04	6857.33
3131.31	6875.53
3132.58	6891.38
3133.85	6947.17
3135.12	6974.65
3136.39	6984.82
3137.66	6999.91
3138.93	7050.03
3140.2	7053.24
3141.46	7057.23
3142.73	7069.5
3144	7140.52
3145.27	7119.92
3146.54	7159.06
3147.8	7198.55
3149.07	7234.38
3150.34	7251.35
3151.6	7277.42
3152.87	7276.6
3154.14	7324
3155.4	7331.12
3156.67	7393.16
3157.94	7369.93
3159.2	7425.6
3160.47	7448.21
3161.73	7483.94
3163	7520.02
3164.26	7504.14
3165.53	7486.42
3166.79	7543.63
3168.05	7563.29
3169.32	7583.16
3170.58	7578.31
3171.84	7592.44
3173.11	7555.27
3174.37	7562.31
3175.63	7558.73
3176.9	7573.7
3178.16	7576.82
3179.42	7580.05
3180.68	7601.72
3181.94	7560.24
3183.21	7597.22
3184.47	7599.05
3185.73	7613.31
3186.99	7592.57
3188.25	7611.69
3189.51	7678.92
3190.77	7627.99
3192.03	7608.59
3193.29	7638.9
3194.55	7632.74
3195.81	7663.86
3197.07	7622.38
3198.33	7632.3
3199.58	7632.6
3200.84	7611.75
3202.1	7621.73
3203.36	7638.1
3204.62	7671.22
3205.87	7661.72
3207.13	7639.24
3208.39	7624.07
3209.65	7626.91
3210.9	7596.71
3212.16	7601.34
3213.41	7590.53
3214.67	7584.43
3215.93	7553.28
3217.18	7565.22
3218.44	7557.34
3219.69	7586.33
3220.95	7548.61
3222.2	7580.56
3223.46	7575.96
3224.71	7524.15
3225.97	7532.26
3227.22	7527.18
3228.47	7518.29
3229.73	7532.23
3230.98	7524.08
3232.23	7509.14
3233.48	7486.82
3234.74	7478.13
3235.99	7471.76
3237.24	7472.44
3238.49	7466.4
3239.75	7428.82
3241	7445.4
3242.25	7442.74
3243.5	7392.44
3244.75	7387.7
3246	7388.63
3247.25	7371.21
3248.5	7372.48
3249.75	7349.74
3251	7340.11
3252.25	7311.75
3253.5	7300.91
3254.75	7308.88
3256	7299.84
3257.25	7257.19
3258.49	7234.04
3259.74	7253.64
3260.99	7251.4
3262.24	7212.44
3263.49	7210.53
3264.73	7191.59
3265.98	7203.6
3267.23	7198.49
3268.47	7206.65
3269.72	7148.37
3270.97	7167.9
3272.21	7150.12
3273.46	7144.08
3274.7	7146.3
3275.95	7122.76
3277.2	7112.54
3278.44	7103.37
3279.69	7088.56
3280.93	7077.41
3282.17	7035.75
3283.42	7056.91
3284.66	7037.18
3285.91	7044.46
3287.15	7042.53
3288.39	7016.52
3289.64	7019.7
3290.88	7004.38
3292.12	6976.68
3292.31	6964.98
3293.56	7004.67
3294.8	6968.67
3296.05	6981.8
3297.3	7008.59
3298.55	6911.79
3299.79	6955.96
3301.04	6946.23
3302.29	6943.32
3303.54	6906.87
3304.78	6921.62
3306.03	6934.03
3307.27	6936.32
3308.52	6909.38
3309.76	6946.74
3311.01	6932
3312.26	6886.26
3313.5	6868.85
3314.75	6885.93
3315.99	6892.84
3317.23	6863.45
3318.48	6870.86
3319.72	6875.22
3320.97	6877.85
3322.21	6886.54
3323.45	6846.54
3324.7	6840.18
3325.94	6862.63
3327.18	6879.62
3328.42	6847.66
3329.67	6830.65
3330.91	6794.27
3332.15	6813.16
3333.39	6815.96
3334.63	6841.87
3335.87	6848.92
3337.12	6844.32
3338.36	6805.98
3339.6	6803.11
3340.84	6754.42
3342.08	6790.33
3343.32	6784.3
3344.56	6794.92
3345.8	6824.22
3347.04	6770.18
3348.27	6782.11
3349.51	6763.17
3350.75	6779.29
3351.99	6778.67
3353.23	6757.61
3354.47	6749.55
3355.7	6777.09
3356.94	6742.17
3358.18	6749.86
3359.42	6771.76
3360.65	6751.75
3361.89	6734.6
3363.13	6752.36
3364.36	6777.5
3365.6	6738.02
3366.83	6749
3368.07	6700.97
3369.31	6742.03
3370.54	6753.3
3371.78	6702.49
3373.01	6747.61
3374.25	6736.9
3375.48	6737.87
3376.71	6723.22
3377.95	6722.06
3379.18	6688.64
3380.42	6686.8
3381.65	6666.19
3382.88	6673.94
3384.12	6684.21
3385.35	6703.16
3386.58	6623.68
3387.81	6652.11
3389.04	6655.61
3390.28	6628.69
3391.51	6641.39
3392.74	6636.87
3393.97	6639.26
3395.2	6662.86
3396.43	6632.36
3397.67	6638.63
3398.9	6615.42
3400.13	6632.93
3401.36	6617.01
3402.58	6637.14
3403.82	6610.48
3405.05	6578.96
3406.27	6601.17
3407.5	6592.23
3408.73	6564.16
3409.96	6570.36
3411.19	6560.53
3412.42	6546.37
3413.64	6541.34
3414.87	6528.94
3416.1	6537.77
3417.33	6510.24
3418.55	6472.54
3419.78	6486.06
3421.01	6517.7
3422.23	6481.02
3423.46	6473.14
3424.69	6469.71
3425.91	6466.79
3427.14	6437.61
3428.36	6438.5
3429.59	6384.81
3430.81	6388.03
3432.04	6342.84
3433.26	6401.52
3434.49	6357.06
3435.71	6336.16
3436.94	6355.54
3438.16	6298.22
3439.39	6295.05
3440.61	6295.1
3441.83	6260.56
3443.05	6240.82
3444.28	6267.43
3445.5	6221.41
3446.72	6207.87
3447.95	6174.92
3449.17	6213.19
3450.39	6175.61
3451.61	6144.66
3452.83	6148.27
3454.05	6139.02
3455.27	6116.49
3456.5	6110.17
3457.71	6071.81
3458.94	6010.77
3460.16	6012.78
3461.38	6027.8
3462.59	5995.12
3463.81	5991.11
3465.03	5968.46
3466.25	5956.21
3467.47	5931.59
3468.69	5918.61
3469.91	5901.26
3471.13	5863.56
3472.35	5834.68
3473.56	5823.59
3474.78	5800.18
3476	5794.25
3477.22	5773.05
3478.43	5766.55
3479.65	5711.75
3480.87	5692.04
3482.08	5691.53
3483.3	5625.38
3484.52	5611.01
3485.73	5599.8
3486.95	5557.19
3488.16	5583.23
3489.38	5521.72
3490.59	5525.59
3491.81	5494.81
3493.02	5467.67
3494.24	5472.92
3495.45	5427.6
3496.67	5397.47
3497.88	5376.62
3499.09	5346.99
