#Acq. time (s)=	10
#Accumulations=	10
#Range (cm-¹)=	400...3500
#Windows=	3
#Auto scanning=	Off
#Autofocus=	Off
#AutoExposure=	Off
#Spike filter=	Multiple accum.
#Delay time (s)=	0
#Binning=	1
#Readout mode=	Signal
#DeNoise=	Off
#ICS correction=	On
#Dark correction=	Off
#Inst. Process=	Off
#Detector Gain=	Best Dynamic Range
#Detector ADC=	45 kHz       
#Detector temperature (°C)=	-60.1
#Instrument=	LabRAM HR Evol
#Detector=	Syncerity OE
#Objective=	x50_VIS_LWD
#Grating=	600 (500nm)
#ND Filter=	50%
#Laser=	532nm_Edge
#Hole=	199.981
#Range=	Visible
#E-Cal_Neon=	0
#StageXY=	75x50mm Scan+
#StageZ=	Z motor
#X (µm)=	0
#Y (µm)=	0
#Z (µm)=	861.5
#Spectral res.(cm-¹)=	12.8
#Full time(mm:ss)=	5:19
#AC=	Calibrated 2025-06-30 10:26
#Project=	
#Sample=	
#Site=	
#Title=	D_99
#Remark=	
#Date=	30.06.2025 14:29 (India Standard Time)
#Acquired=	30.06.2025 14:29:15 (India Standard Time)
#AxisType[0]=Intens
#AxisUnit[0]=Cnt
#AxisType[1]=Spectr
#AxisUnit[1]=1/cm
400.17	20007.5
401.945	19914.4
403.717	19858.3
405.491	19871
407.263	19839.6
409.036	19909
410.807	19843.3
412.58	19841.1
414.35	19835.7
416.122	19880.4
417.892	19881.5
419.663	19780
421.432	19819
423.203	19863.3
424.971	19783.5
426.741	19878.2
428.509	19840
430.276	19866
432.045	19832.8
433.812	19786.5
435.58	19877.4
437.346	19765.4
439.111	19804.3
440.879	19754.3
442.643	19705.9
444.408	19668.8
446.174	19662.2
447.938	19674
449.701	19678.8
451.467	19676.2
453.229	19719.9
454.992	19572.7
456.756	19627.5
458.518	19610.1
460.279	19575.4
462.043	19528.2
463.803	19511.6
465.564	19509.9
467.326	19506.1
469.086	19491.8
470.845	19488.9
472.604	19445.2
474.365	19448.1
476.123	19432.2
477.882	19429.9
479.639	19407.7
481.399	19410
483.156	19417.8
484.913	19416.9
486.669	19379.6
488.425	19383.4
490.183	19400.3
491.938	19331.5
493.693	19389.7
495.448	19383.6
497.202	19357.3
498.956	19414.4
500.712	19438.5
502.465	19398.1
504.218	19392.9
505.971	19402
507.723	19409.5
509.475	19465.7
511.227	19443.3
512.981	19406
514.732	19463.4
516.482	19384.6
518.233	19433.3
519.983	19368.7
521.732	19315.1
523.482	19327.2
525.231	19287.2
526.979	19244
528.728	19247.2
530.476	19190.2
532.223	19209.4
533.971	19111.3
535.718	19084.7
537.464	19094.4
539.211	19139.1
540.956	19048.5
542.702	19072.5
544.447	19021.8
546.192	18999.8
547.937	18977.2
549.681	18916.9
551.425	18973.1
553.169	18966.2
554.912	18949.1
556.655	19035.5
558.398	18949.6
560.14	18897.4
561.882	18882.1
563.624	18889.6
565.365	18900.8
567.106	18906.8
568.847	18890.3
570.585	18966.4
572.325	18918.9
574.065	18915.2
575.804	18961.2
577.543	18942.7
579.282	18954.4
581.02	18937.8
582.756	18924.5
584.494	19040.9
586.231	18971.8
587.968	18965.9
589.705	18997.4
591.441	19007.9
593.175	19040.8
594.911	19090.1
596.646	19106.1
598.381	19077
600.116	19070.6
601.848	19175.7
603.582	19096.3
605.316	19122.9
607.049	19152
608.78	19133
610.513	19053.5
612.245	18983
613.977	18873
615.707	18908.3
617.438	18860.9
619.17	18800
620.898	18791.6
622.629	18792.7
624.359	18721.2
626.086	18631.3
627.816	18625.3
629.545	18589.8
631.272	18593.4
633	18553.5
634.728	18614.7
636.454	18607.5
638.181	18548.1
639.908	18600.8
641.633	18638
643.36	18561.2
645.084	18555.8
646.81	18524.3
648.535	18523.8
650.258	18404.4
651.983	18442
653.705	18400.9
655.43	18393.9
657.153	18438.5
658.875	18373
660.598	18353.6
662.319	18370.7
664.041	18325.5
665.762	18359.5
667.483	18359.1
669.203	18363.8
670.924	18353.4
672.643	18317.2
674.364	18319.8
676.082	18290
677.802	18286.3
679.519	18283.2
681.238	18258.9
682.955	18268.8
684.674	18316.6
686.39	18305.6
688.106	18349.2
689.824	18295.1
691.539	18349.7
693.256	18292.6
694.971	18332.9
696.685	18353.1
698.401	18373.7
700.115	18335.9
701.83	18337.2
703.543	18349.8
705.256	18308.4
706.97	18300.7
708.682	18286.6
710.394	18296.7
712.107	18269
713.818	18284
715.529	18343.3
717.241	18357
718.952	18325.6
720.661	18396.3
722.373	18433.4
724.082	18368.7
725.791	18368.6
727.501	18318
729.209	18309.4
730.917	18255.7
732.625	18361.4
734.334	18262.2
736.041	18227.8
737.747	18303.1
739.453	18254
741.161	18196.5
742.867	18146
744.572	18148.2
746.277	18216.5
747.982	18183.7
749.688	18163.4
751.392	18202.8
753.096	18259.1
754.799	18237.3
756.502	18232.5
758.205	18200
759.909	18288.8
761.611	18228.2
763.313	18267.4
765.014	18248.8
766.715	18245.7
768.416	18281.8
770.116	18264.1
771.816	18276.9
773.516	18253.5
775.218	18249
776.917	18352
778.616	18198
780.314	18245
782.012	18249.7
783.71	18261.3
785.408	18273.7
787.105	18282.2
788.802	18266.7
790.498	18285.2
792.195	18276.8
793.891	18215.4
795.586	18261.5
797.281	18288.5
798.977	18358.4
800.671	18338.3
802.365	18295.6
804.06	18460.7
805.753	18421.5
807.447	18413.8
809.14	18416.6
810.832	18441.8
812.525	18392.3
814.217	18459.7
815.907	18409.8
817.598	18552.1
819.289	18580.1
820.98	18610.1
822.671	18692.8
824.361	18733.7
826.051	18783.4
827.74	18809
829.43	18870.8
831.117	18880.4
832.805	18915.9
834.494	18923
836.182	19035.1
837.869	19016.5
839.557	19111
841.242	19149.2
842.928	19167.8
844.615	19210.2
846.301	19270.2
847.987	19266.3
849.67	19279.8
851.355	19282
853.04	19256.7
854.724	19285.2
856.407	19313.5
858.091	19358.8
859.774	19418.6
861.457	19444.9
863.138	19483.9
864.821	19491.9
866.503	19482
868.183	19599.1
869.865	19653
871.546	19611.3
873.225	19560.6
874.906	19526.7
876.586	19584.1
878.264	19526.9
879.944	19362.4
881.624	19420.5
883.301	19363.1
884.98	19332.1
886.658	19460.4
888.334	19418.6
890.012	19425.9
891.688	19393.6
893.365	19202.9
895.042	19145.2
896.717	18998.8
898.393	18889.6
900.067	18757.7
901.743	18694.3
903.416	18694.7
905.091	18607.7
906.766	18545.1
908.438	18539.7
910.112	18463.7
911.784	18457.2
913.458	18459.3
915.129	18465.6
916.802	18491.9
918.472	18494.6
920.145	18493.2
921.815	18415.3
923.484	18456.2
925.156	18373.3
926.825	18257.2
928.495	18220.5
930.164	18178.9
931.834	18098.8
933.501	18116.2
935.171	18051.7
936.838	17949.9
938.505	18026.9
940.173	17969.7
941.84	18052.7
943.505	18033.2
945.173	18026.9
946.838	18078.8
948.505	18047.4
950.17	18032.3
951.834	18097.9
953.5	18081.3
955.164	18097.7
956.827	18121.5
958.492	18121.1
960.155	18113.9
961.818	18135
963.48	18187.6
965.144	18207.2
966.805	18097.7
968.467	18125.6
970.128	18051.4
971.79	17987.2
973.45	17936.7
975.11	17948.4
976.77	17819.4
978.432	17802.7
980.091	17837
981.749	17809.3
983.408	17842.3
985.068	17777.3
986.726	17898.5
988.383	17868.5
990.041	17962.8
991.698	18041.7
993.354	18064.7
995.012	18269.6
996.668	18363.7
998.324	18670.2
999.979	18959.2
1001.63	19179
1003.29	19401.4
1004.94	19415.9
1006.6	19337
1008.25	19225.3
1009.91	18948.2
1011.56	18829.3
1013.21	18567
1014.87	18557.7
1016.52	18446.9
1018.17	18376.6
1019.82	18389.6
1021.47	18348.6
1023.12	18327.9
1024.78	18240.3
1026.43	18126.2
1028.08	18165
1029.73	18101.3
1031.38	18090.5
1033.02	18119.1
1034.67	17983.9
1036.32	17993
1037.97	18019.8
1039.62	18027.8
1041.27	18023.4
1042.91	18020.1
1044.56	17992.7
1046.21	18009.8
1047.85	18008.3
1049.5	18003.2
1051.14	18073.3
1052.79	18151.1
1054.43	18296.3
1056.08	18410.9
1057.72	18677.6
1059.37	18924.2
1061.01	19291.6
1062.65	19403.1
1064.3	19463.1
1065.94	19256.1
1067.58	19044.1
1069.23	18903.7
1070.87	18858.5
1072.51	18907.9
1074.15	18937.1
1075.79	18968.5
1077.43	19078.2
1079.07	19154.6
1080.71	19119.7
1082.35	19195.3
1083.99	19026.3
1085.63	19017.3
1087.27	18840.8
1088.91	18779.6
1090.55	18682.8
1092.18	18544.1
1093.82	18416.3
1095.46	18235.9
1097.1	18144.3
1098.73	17987.4
1100.37	17924.3
1102	17788.4
1103.64	17716.6
1105.27	17650.2
1106.91	17610
1108.54	17560.5
1110.18	17562.1
1111.81	17661.9
1113.44	17718.3
1115.08	17821.6
1116.71	17931.6
1118.34	18073.5
1119.98	18156.6
1121.61	18220.8
1123.24	18340.3
1124.87	18489.1
1126.5	18410.2
1128.13	18433.7
1129.76	18210.1
1131.39	18003.2
1133.02	17733.1
1134.65	17619
1136.28	17449.4
1137.91	17445.7
1139.54	17470.6
1141.17	17567.2
1142.8	17766.9
1144.42	17998.2
1146.05	18297.5
1147.68	18713
1149.3	19269.3
1150.93	19971.9
1152.56	20663.8
1154.18	21460.5
1155.81	21910.9
1157.43	21923.8
1159.06	21442.4
1160.68	20578.6
1162.31	19604.6
1163.93	18711.2
1165.55	18091.1
1167.18	17717.5
1168.8	17450.8
1170.42	17352.1
1172.04	17248.5
1173.67	17213.9
1175.29	17121.3
1176.91	17091.2
1178.53	16972
1180.15	16875.6
1181.77	16877.9
1183.39	16997.6
1185.01	16996.4
1186.63	17036
1188.25	17122.4
1189.87	17092.1
1191.49	17130.2
1193.11	17108.1
1194.72	17050.7
1196.34	16962.6
1197.96	16860.9
1199.58	16679
1201.19	16657.7
1202.81	16540.8
1204.43	16412.9
1206.04	16432.6
1207.66	16330.8
1209.27	16413.4
1210.88	16452.2
1212.5	16418.2
1214.11	16362.2
1215.73	16279.2
1217.34	16199.5
1218.95	16105
1220.57	16072.9
1222.18	16003.5
1223.79	15965.7
1225.4	15932.6
1227.02	16010.4
1228.63	15985.3
1230.24	15974.6
1231.85	15952.7
1233.46	15979.8
1235.07	16057.2
1236.68	16040.5
1238.29	16103
1239.9	16114.9
1241.51	16272.5
1243.12	16319.6
1244.72	16372.2
1246.33	16321.4
1247.94	16469.5
1249.55	16492.3
1251.15	16576.9
1252.76	16650.3
1254.37	16700.3
1255.97	16750.8
1257.58	16833.8
1259.19	16878
1260.79	16952.2
1262.39	16927.3
1264	17003.6
1265.6	17074
1267.21	17080.6
1268.81	17126.8
1270.41	17061.1
1272.02	16982.3
1273.62	16913.2
1275.22	16890.4
1276.82	16883
1278.43	16805.8
1280.03	16791.1
1281.63	16881.1
1283.23	16812
1284.83	16970.6
1286.43	17026.8
1288.03	17126.1
1289.63	17380.9
1291.23	17679.5
1292.83	18165.7
1294.43	18619.2
1296.03	19044.1
1297.62	19304.1
1299.22	19464.1
1300.82	19441
1302.42	19306.3
1304.01	19053.5
1305.61	18869.5
1307.21	18586
1308.8	18289.5
1310.4	17996.9
1311.99	17712
1313.59	17390.2
1315.18	17162.2
1316.78	16938.1
1318.37	16699.2
1319.96	16526.4
1321.56	16389.3
1323.15	16265
1324.74	16137.2
1326.34	15960.1
1327.93	15890.5
1329.52	15790.2
1331.11	15713.3
1332.7	15677.1
1334.3	15521.2
1335.89	15602
1337.48	15503.3
1339.07	15536.2
1340.66	15479.4
1342.25	15453
1343.84	15360.9
1345.42	15400.4
1347.01	15361.2
1348.6	15341.6
1350.19	15385.5
1351.78	15397.1
1353.37	15304.4
1354.95	15308.3
1356.54	15164.3
1358.13	15183.4
1359.71	15131.5
1361.3	15185.9
1362.88	15141.6
1364.47	15185.2
1366.05	15185.3
1367.64	15133.1
1369.22	15108.3
1370.81	15087.8
1372.39	15009.8
1373.97	14871.3
1375.56	14891.3
1377.14	14759.6
1378.72	14757.1
1380.31	14627.8
1381.89	14624
1383.47	14601.9
1385.05	14580.5
1386.63	14622.1
1388.21	14600.2
1389.79	14630.6
1391.37	14583.1
1392.95	14528.5
1394.53	14551.3
1396.11	14508.1
1397.69	14507.7
1399.27	14520.5
1400.85	14597.5
1402.42	14612.2
1404	14558
1405.58	14635.5
1407.16	14708.6
1408.73	14734.4
1410.31	14836.2
1411.89	14891.7
1413.46	15060.5
1415.04	15166.1
1416.61	15321.9
1418.19	15481.3
1419.76	15588.2
1421.34	15680
1422.91	15802.6
1424.49	16050.9
1426.06	16229.2
1427.63	16642.1
1429.21	17194.1
1430.78	17938.8
1432.35	18731
1433.92	19622.1
1435.49	20368
1437.07	20949.5
1438.64	21269.4
1440.21	21365.8
1441.78	21194.9
1443.35	20839.3
1444.92	20584.3
1446.49	20269.1
1448.06	20045.3
1449.63	19826.7
1451.2	19645.9
1452.76	19423.5
1454.33	19293.5
1455.9	19192.5
1457.47	18925.8
1459.03	18716.4
1460.6	18433.1
1462.17	18081.2
1463.74	17703.4
1465.3	17410
1466.87	16951.2
1468.43	16666.7
1470	16333.8
1471.56	15964.3
1473.13	15603
1474.69	15339.9
1476.26	15184.2
1477.82	14983.5
1479.38	14779
1480.94	14658
1482.51	14545.8
1484.07	14483
1485.63	14469
1487.2	14406.4
1488.76	14378.3
1490.32	14375.2
1491.88	14389.4
1493.44	14361.3
1495	14439.7
1496.56	14453.7
1498.12	14576.4
1499.68	14599.6
1501.24	14655.7
1502.8	14780.8
1504.36	15020.8
1505.91	15281.6
1507.47	15495.7
1509.03	15832.2
1510.59	16253.8
1512.14	16699.8
1513.7	17145.5
1515.26	17645.7
1516.81	18162.6
1518.37	18502.4
1519.93	18814
1521.48	18955.2
1523.04	18906.5
1524.59	18730.4
1526.15	18354.8
1527.7	17822
1529.25	17223.7
1530.81	16485.2
1532.36	15877.6
1533.91	15318.2
1535.47	14814.4
1537.02	14419.1
1538.57	14125.5
1540.12	13982.3
1541.67	13830.5
1543.23	13703.7
1544.78	13541.6
1546.33	13483.9
1547.88	13351
1549.43	13329.6
1550.98	13222.3
1552.53	13252.3
1554.08	13186.9
1555.63	13203.4
1557.18	13175.5
1558.72	13146.3
1560.27	13062.7
1561.82	13059.4
1563.37	13050.7
1564.91	13012.2
1566.46	13074.6
1568.01	13011.5
1569.55	13001.8
1571.1	13017.8
1572.64	12955.8
1574.19	13007.6
1575.74	12966.2
1577.28	12963.6
1578.83	12955.8
1580.37	12975.5
1581.91	12978.8
1583.46	12984.3
1585	12953
1586.54	12996.1
1588.09	12933.2
1589.63	12971
1591.17	12940
1592.71	12925.4
1594.25	12943.4
1595.79	12953.3
1597.34	12964.1
1598.88	12894.2
1600.42	12901
1601.96	12872.9
1603.5	12893.9
1605.04	12861.4
1606.58	12865
1608.12	12883.8
1609.65	12871.9
1611.19	12778.8
1612.73	12762.9
1614.27	12768.1
1615.8	12720.4
1617.34	12756.2
1618.88	12683.4
1620.42	12660.7
1621.95	12704.3
1623.49	12695.5
1625.03	12699.2
1626.56	12747.3
1628.1	12741.5
1629.63	12777
1631.17	12810.7
1632.7	12845.9
1634.23	12886.6
1635.77	12953.6
1637.3	12952.9
1638.83	13064.3
1640.37	13129.4
1641.9	13226.5
1643.43	13320.6
1644.96	13522.5
1646.5	13899
1648.03	14256.9
1649.56	14784
1651.09	15100.4
1652.62	15372
1654.15	15412.1
1655.68	15318.5
1657.21	15047.7
1658.74	14612.3
1660.27	14253.5
1661.8	13867.6
1663.32	13573.7
1664.85	13419.1
1666.38	13319.5
1667.91	13166
1669.44	13131.5
1670.96	13036.7
1672.49	12889.5
1674.02	12757.3
1675.54	12606.9
1677.07	12440.9
1678.59	12385
1680.12	12273.7
1681.65	12255
1683.17	12168.6
1684.69	12150.1
1686.22	12103.6
1687.74	12061.5
1689.27	12024.2
1690.79	12027.1
1692.31	11973.1
1693.84	12006.8
1695.36	11978.8
1696.88	11898.5
1698.4	11881.1
1699.92	11851.7
1701.45	11802.9
1702.97	11802.9
1704.49	11792
1706.01	11780
1707.53	11756.6
1709.05	11713.6
1710.57	11675.4
1712.09	11683.7
1713.61	11665.9
1715.13	11696.9
1716.65	11642.1
1718.16	11685.5
1719.68	11655.2
1721.2	11686.9
1722.72	11697.1
1724.23	11793.6
1725.75	11829.3
1727.27	11883.7
1728.78	11964.8
1730.3	12034.9
1731.82	12040.6
1733.33	12054
1734.84	12182.6
1736.36	12291.3
1737.87	12476.6
1739.39	12619
1740.9	12718.2
1742.42	12756.4
1743.93	12714
1745.44	12711.1
1746.96	12660.4
1748.47	12592.5
1749.98	12567.5
1751.49	12427.5
1753	12318.4
1754.51	12135.4
1756.03	11990.8
1757.54	11920.8
1759.05	11741
1760.56	11600.7
1762.07	11545.4
1763.58	11453.2
1765.09	11399.3
1766.6	11362.2
1768.11	11320
1769.61	11210.6
1771.12	11216.8
1772.63	11240
1774.14	11219.1
1775.65	11154.8
1777.15	11171.9
1778.66	11159.7
1780.17	11163.3
1781.67	11132.9
1783.18	11080
1784.68	11066.8
1786.19	11133.5
1787.7	11056
1789.2	11095.2
1790.71	11070.5
1792.21	11003.1
1793.71	11030.3
1795.22	11066.6
1796.72	11015.5
1798.22	11008.8
1799.73	10961.1
1801.23	10960.7
1802.73	10924
1804.23	10938.7
1805.74	10913.2
1807.24	10910.5
1808.74	10950.5
1810.24	10892.4
1811.74	10901
1813.24	10925.8
1814.74	10890
1816.24	10830.3
1817.74	10903.8
1819.24	10842.7
1820.74	10856.8
1822.24	10833.6
1823.74	10830.1
1825.23	10759.8
1826.73	10860.4
1828.23	10768.5
1829.73	10843.3
1831.22	10793.6
1832.72	10771.5
1834.22	10756.7
1835.71	10731.7
1837.21	10788.5
1838.71	10732.2
1840.2	10780.2
1841.7	10726
1843.19	10747.5
1844.68	10731.4
1846.18	10724.4
1847.67	10735.1
1849.17	10675.6
1850.66	10691.3
1852.15	10642
1853.65	10632.4
1855.14	10637.7
1856.63	10616.5
1858.12	10617.2
1859.62	10623.1
1861.11	10599.5
1862.6	10570.3
1864.09	10622.6
1865.58	10620.4
1867.07	10568.9
1868.56	10585
1870.05	10614.6
1871.54	10581.4
1873.03	10519.1
1874.52	10570.2
1876.01	10561.3
1877.49	10523.7
1878.98	10537.7
1880.47	10503.8
1881.96	10473.1
1883.45	10450.5
1884.93	10477.4
1886.42	10463.4
1887.91	10410.6
1889.39	10422.9
1890.88	10402.7
1892.36	10402.9
1893.85	10353.1
1895.34	10394.3
1896.82	10307
1898.3	10304.3
1899.79	10299.9
1901.27	10281
1902.76	10312.4
1904.24	10252.3
1905.72	10156.1
1907.2	10162.6
1908.69	10150.8
1910.17	10067.7
1911.65	10083.2
1913.13	10052.5
1914.62	10031.3
1916.1	10016.1
1917.58	9973.62
1919.06	9918.13
1920.54	9934.8
1922.02	9897.76
1923.5	9834.32
1924.98	9869.98
1926.46	9802.12
1927.94	9793.98
1929.42	9772.76
1930.89	9728.44
1932.37	9729.68
1933.85	9722.3
1935.33	9656.42
1936.81	9643.38
1938.28	9619.4
1939.76	9570.05
1941.24	9557.27
1942.71	9563.53
1944.19	9528.91
1945.66	9533.01
1947.14	9466.31
1948.61	9461.8
1950.09	9429.97
1951.57	9405.63
1953.04	9355.78
1954.51	9332.6
1955.99	9306.28
1957.46	9236.83
1958.93	9243
1960.41	9225.64
1961.88	9194.61
1963.35	9215.17
1964.82	9152.99
1966.3	9129.2
1967.77	9136.92
1969.24	9097.96
1970.71	9089.3
1972.18	9074.74
1973.65	9053.63
1975.12	9018.03
1976.59	8992.68
1978.06	8977.85
1979.53	8947.44
1981	8924.94
1982.47	8943.21
1983.94	8888.18
1985.41	8881.94
1986.87	8880.22
1988.34	8861.4
1989.81	8797.52
1991.28	8795.64
1992.74	8746.07
1994.21	8724.17
1995.68	8707.54
1997.14	8680.83
1998.61	8651.13
2000.07	8638.3
2001.54	8626.22
2003.01	8620.38
2004.47	8581.58
2005.94	8566
2007.4	8546.04
2008.86	8560.13
2010.33	8541.48
2011.79	8528.77
2013.25	8496.07
2014.72	8475.88
2016.18	8443.11
2017.64	8443.79
2019.1	8415.92
2020.57	8390.52
2022.03	8353.41
2023.49	8373.06
2024.95	8349.09
2026.41	8337.32
2027.87	8316.89
2029.33	8297.51
2030.79	8291.52
2032.25	8262.84
2033.71	8243.76
2035.17	8227.3
2036.63	8233.4
2038.09	8196.34
2039.54	8191.24
2041	8196.44
2042.46	8184.06
2043.92	8180.07
2045.38	8179.04
2045.86	8175.01
2047.32	8112.3
2048.79	8157.07
2050.25	8135.75
2051.71	8130.75
2053.17	8139.36
2054.64	8144.2
2056.1	8109.16
2057.56	8085.17
2059.02	8089.87
2060.48	8044.07
2061.94	8097.81
2063.4	8093.15
2064.86	8026.42
2066.32	8044.16
2067.78	8055.76
2069.24	8054.15
2070.7	8069.97
2072.16	8050.45
2073.62	8024.75
2075.08	8070.82
2076.54	8051.74
2077.99	8018.37
2079.45	8046.49
2080.91	8002.29
2082.37	7988.72
2083.82	7992.42
2085.28	7976.56
2086.74	7976.24
2088.19	7948.49
2089.65	7981.41
2091.1	7924.27
2092.56	7958.99
2094.01	7936.49
2095.47	7953.28
2096.92	7918.18
2098.38	7947.46
2099.83	7892.33
2101.29	7917.66
2102.74	7859.07
2104.19	7919.83
2105.64	7899.89
2107.1	7889.53
2108.55	7845.05
2110	7862.31
2111.45	7859.07
2112.91	7876.32
2114.36	7852.71
2115.81	7828.38
2117.26	7841.11
2118.71	7798.15
2120.16	7818.56
2121.61	7844.19
2123.06	7819.95
2124.51	7808.94
2125.96	7791.02
2127.4	7779.91
2128.85	7780.74
2130.3	7789.17
2131.75	7807.57
2133.2	7744.42
2134.65	7763.83
2136.09	7772.06
2137.54	7755.06
2138.99	7739.17
2140.43	7749.21
2141.88	7753.92
2143.32	7719.94
2144.77	7733.77
2146.22	7740.3
2147.66	7719.91
2149.11	7696.88
2150.55	7706.01
2152	7701.88
2153.44	7719.47
2154.88	7698.46
2156.33	7701.3
2157.77	7673.72
2159.21	7728.06
2160.66	7684.75
2162.1	7667.84
2163.54	7666.61
2164.98	7676.21
2166.43	7675.22
2167.87	7676.84
2169.31	7701.4
2170.75	7690.6
2172.19	7684.98
2173.63	7672.9
2175.07	7643.2
2176.51	7645.8
2177.95	7646.05
2179.39	7655.72
2180.83	7634.82
2182.27	7638.8
2183.71	7618.16
2185.14	7595.7
2186.58	7597.1
2188.02	7597.73
2189.46	7586.51
2190.9	7584.53
2192.33	7578.73
2193.77	7594.34
2195.21	7578.13
2196.64	7569.13
2198.08	7606.79
2199.51	7564.65
2200.95	7542.53
2202.39	7543.12
2203.82	7510.46
2205.25	7498.39
2206.69	7544.73
2208.12	7489.11
2209.56	7499.92
2210.99	7461.68
2212.42	7499.31
2213.86	7453.01
2215.29	7426.27
2216.72	7400.8
2218.15	7460.84
2219.59	7424.32
2221.02	7411.61
2222.45	7415.4
2223.88	7372.72
2225.31	7369.79
2226.74	7400.08
2228.17	7352.13
2229.6	7349.25
2231.03	7352.23
2232.46	7333.08
2233.89	7299.07
2235.32	7318.66
2236.75	7277.04
2238.18	7269.21
2239.61	7280.56
2241.04	7315.44
2242.46	7280.64
2243.89	7257.55
2245.32	7255.05
2246.75	7244.68
2248.17	7201.19
2249.6	7248.14
2251.03	7200.83
2252.45	7202.42
2253.88	7212.16
2255.31	7202.95
2256.73	7193.85
2258.16	7177.91
2259.58	7139.83
2261	7194.69
2262.43	7114.17
2263.85	7119.39
2265.28	7110.18
2266.7	7117.48
2268.12	7082.24
2269.55	7067.22
2270.97	7093.41
2272.39	7049.77
2273.81	7040.48
2275.24	7017.98
2276.66	7046.97
2278.08	7017.55
2279.5	7006.32
2280.92	6990.39
2282.34	7024.68
2283.76	6985.19
2285.18	7001.47
2286.6	6958.5
2288.02	6969.15
2289.44	6946.06
2290.86	6974.62
2292.28	6928.19
2293.7	6966.59
2295.12	6939.34
2296.54	6941.71
2297.95	6935.22
2299.37	6953.12
2300.79	6901.56
2302.21	6901.4
2303.62	6894.64
2305.04	6858.83
2306.46	6894.71
2307.87	6875.05
2309.29	6837.86
2310.7	6867.32
2312.12	6882.08
2313.53	6843.24
2314.95	6831.3
2316.36	6821.49
2317.78	6771.18
2319.19	6791.28
2320.61	6777.34
2322.02	6774.27
2323.43	6797.8
2324.85	6846.92
2326.26	6881.03
2327.67	6935.67
2329.08	6994.45
2330.5	7033.32
2331.91	6922.89
2333.32	6756.06
2334.73	6650.55
2336.14	6670.34
2337.55	6673.67
2338.96	6694.59
2340.37	6642.65
2341.78	6625.72
2343.19	6636.42
2344.6	6648.03
2346.01	6612.85
2347.42	6604.13
2348.83	6588.92
2350.24	6576.57
2351.65	6563.34
2353.05	6595.88
2354.46	6549.26
2355.87	6581.33
2357.28	6564.59
2358.68	6531.5
2360.09	6535.07
2361.5	6527.88
2362.9	6497.5
2364.31	6503.57
2365.71	6494.92
2367.12	6496.58
2368.52	6480.1
2369.93	6444.65
2371.33	6503.77
2372.74	6459.15
2374.14	6427.43
2375.55	6426.98
2376.95	6433.33
2378.35	6416.91
2379.76	6425.15
2381.16	6443.96
2382.56	6408.32
2383.96	6379.82
2385.37	6408.51
2386.77	6376.54
2388.17	6392.79
2389.57	6382.33
2390.97	6378.31
2392.37	6335.73
2393.77	6357.27
2395.17	6329.09
2396.57	6337.56
2397.97	6340.02
2399.37	6309.75
2400.77	6335.7
2402.17	6340.25
2403.57	6293.04
2404.97	6300.82
2406.37	6293.11
2407.77	6268.53
2409.16	6263.91
2410.56	6297.32
2411.96	6235.44
2413.36	6266.06
2414.75	6239.13
2416.15	6265.05
2417.55	6254.86
2418.94	6221.23
2420.34	6257.04
2421.73	6228.15
2423.13	6201.52
2424.52	6210.99
2425.92	6251.76
2427.31	6189.76
2428.71	6236.81
2430.1	6196.3
2431.5	6177.65
2432.89	6190.66
2434.28	6146.78
2435.68	6174.07
2437.07	6146.51
2438.46	6140.23
2439.85	6132.32
2441.25	6139.64
2442.64	6148.56
2444.03	6132.76
2445.42	6120.69
2446.81	6111.04
2448.2	6128.86
2449.59	6116.69
2450.98	6093.78
2452.37	6085.17
2453.76	6067.23
2455.15	6090.19
2456.54	6100.24
2457.93	6034.52
2459.32	6095.98
2460.71	6031.52
2462.1	6036.04
2463.49	6037.94
2464.87	6046.13
2466.26	6003.64
2467.65	6020.2
2469.04	5989.49
2470.42	6008.95
2471.81	5984.65
2473.2	5995.54
2474.58	5970.25
2475.97	5950.27
2477.35	5944.51
2478.74	5953.44
2480.12	5930.32
2481.51	5952.68
2482.89	5940.33
2484.28	5946.85
2485.66	5936.81
2487.05	5937.73
2488.43	5932.78
2489.81	5932.77
2491.2	5884.74
2492.58	5902.07
2493.96	5882.77
2495.34	5884.74
2496.73	5887.19
2498.11	5894.95
2499.49	5877.28
2500.87	5867.24
2502.25	5883.96
2503.63	5851.06
2505.01	5845.6
2506.39	5834.39
2507.77	5835.14
2509.15	5841.4
2510.53	5839.88
2511.91	5825.69
2513.29	5821.64
2514.67	5809.77
2516.05	5788.27
2517.43	5801.2
2518.81	5804.14
2520.19	5823.91
2521.56	5771.27
2522.94	5767.41
2524.32	5798.03
2525.7	5806.25
2527.07	5799.01
2528.45	5767.25
2529.82	5752.98
2531.2	5739
2532.58	5757
2533.95	5743.82
2535.33	5724.99
2536.7	5744.75
2538.08	5737.8
2539.45	5731.47
2540.82	5718.49
2542.2	5703.48
2543.57	5704.8
2544.95	5707.27
2546.32	5703.52
2547.69	5685.91
2549.07	5689.12
2550.44	5636.17
2551.81	5669.9
2553.18	5642.71
2554.55	5664.26
2555.93	5634.55
2557.3	5661.21
2558.67	5644.38
2560.04	5647.69
2561.41	5616.3
2562.78	5612.23
2564.15	5615.02
2565.52	5603.88
2566.89	5618.36
2568.26	5602.87
2569.63	5594.46
2571	5601.43
2572.36	5631.65
2573.73	5597.18
2575.1	5599.83
2576.47	5611.63
2577.84	5636.73
2579.2	5612.75
2580.57	5587.82
2581.94	5600.2
2583.31	5610.12
2584.67	5628.41
2586.04	5599.61
2587.4	5559.18
2588.77	5649.67
2590.14	5609.51
2591.5	5604.53
2592.87	5609.37
2594.23	5620.65
2595.6	5620.54
2596.96	5620.81
2598.32	5619.6
2599.69	5603.6
2601.05	5607.22
2602.41	5590.92
2603.78	5589.53
2605.14	5573.75
2606.5	5599.93
2607.86	5611.11
2609.23	5563.77
2610.59	5572.8
2611.95	5587.73
2613.31	5596.63
2614.67	5586.26
2616.03	5560.48
2617.4	5541.52
2618.75	5526.03
2620.11	5565.76
2621.48	5519.98
2622.83	5515
2624.19	5553.54
2625.55	5526.1
2626.91	5518.12
2628.27	5519.16
2629.63	5559.68
2630.99	5546.71
2632.35	5530.74
2633.7	5514.23
2635.06	5495.81
2636.42	5481
2637.77	5539.07
2639.13	5482.76
2640.49	5520.92
2641.84	5511.68
2643.2	5520.33
2644.56	5540.07
2645.91	5547.83
2647.27	5507.59
2648.62	5532.82
2649.98	5533.14
2651.33	5541.72
2652.69	5545.61
2654.04	5546.15
2655.4	5531.73
2656.75	5554.14
2658.1	5557.96
2659.45	5554.58
2660.81	5578.81
2662.16	5562.46
2663.51	5600.9
2664.86	5546.94
2666.22	5586.75
2667.57	5558.02
2668.92	5587.57
2670.27	5569.22
2671.62	5598.57
2672.97	5592.24
2674.32	5556.83
2675.67	5565.42
2677.02	5565.99
2678.37	5564.44
2679.72	5566.99
2681.07	5554.14
2682.42	5562.68
2683.77	5547.85
2685.12	5546.73
2686.47	5583.16
2687.81	5535.35
2689.16	5566.67
2690.51	5567.96
2691.86	5575.71
2693.21	5549.25
2694.55	5554.31
2695.9	5543.67
2697.25	5555.89
2698.59	5571.75
2699.94	5585.75
2701.28	5591.68
2702.63	5623.97
2703.97	5660.57
2705.32	5637.9
2706.66	5689.65
2708.01	5669.93
2709.35	5709.08
2710.7	5761.7
2712.04	5778.99
2713.39	5794.74
2714.73	5836.4
2716.07	5808.26
2717.41	5828.11
2718.76	5852.62
2720.1	5869.71
2721.44	5907.65
2722.78	5889.9
2724.12	5916.3
2725.47	5912.57
2726.81	5928.11
2728.15	5883.38
2729.49	5902.29
2730.83	5868.92
2732.17	5814.42
2733.51	5796.36
2734.85	5753.97
2736.19	5708.15
2737.53	5676.33
2738.87	5604.36
2740.21	5553.14
2741.55	5523.4
2742.88	5476.95
2744.22	5454.24
2745.56	5428.99
2746.9	5419.78
2748.24	5404.99
2749.57	5365.27
2750.91	5318.9
2752.25	5288.31
2753.58	5247.24
2754.92	5250.24
2756.25	5239.64
2757.59	5237.24
2758.93	5223.22
2760.26	5232.85
2761.6	5202.83
2762.93	5209.19
2764.27	5139.14
2765.6	5153.04
2766.93	5132.97
2768.27	5156.2
2769.6	5135.33
2770.94	5143.67
2772.27	5151.11
2773.6	5132.9
2774.93	5105.1
2776.27	5120.97
2777.6	5120.01
2778.93	5112.84
2780.26	5084.06
2781.59	5101.82
2782.93	5106.09
2784.26	5078.67
2785.59	5117.46
2786.92	5078.22
2788.25	5091.52
2789.58	5068.18
2790.91	5080.18
2792.24	5128.24
2793.57	5119.87
2794.9	5154.98
2796.23	5152.88
2797.56	5170.34
2798.88	5160.39
2800.21	5136.47
2801.54	5159.15
2802.87	5144.81
2804.2	5146.09
2805.52	5197.2
2806.85	5211.44
2808.18	5205.66
2809.5	5195.19
2810.83	5232.56
2812.16	5262.33
2813.48	5287.69
2814.81	5318.69
2816.13	5349.36
2817.46	5404.04
2818.78	5399.71
2820.11	5450.82
2821.43	5517.95
2822.76	5556.02
2824.08	5642.95
2825.4	5704.07
2826.73	5796.86
2828.05	5913.14
2829.37	6021.85
2830.7	6144.83
2832.02	6299.7
2833.34	6514.15
2834.66	6757.41
2835.99	7074.34
2837.31	7431.67
2838.63	7937.69
2839.95	8541.24
2841.27	9359.3
2842.59	10293.2
2843.91	11400
2845.23	12678
2846.55	13926
2847.87	15076.2
2849.19	15959.5
2850.51	16501.8
2851.83	16683.9
2853.15	16614.5
2854.47	16299.7
2855.79	15913.9
2857.11	15466.8
2858.43	15046.3
2859.74	14779.1
2861.06	14424
2862.38	14187.1
2863.69	13923.2
2865.01	13673.4
2866.33	13538.6
2867.65	13527.2
2868.96	13563.3
2870.28	13763.2
2871.59	13924.9
2872.91	14177.7
2874.22	14363.6
2875.54	14565.3
2876.85	14763.7
2878.17	14973.5
2879.48	15199.3
2880.8	15420.3
2882.11	15616
2883.42	15712.1
2884.74	15718.4
2886.05	15688.5
2887.36	15619.6
2888.68	15672.9
2889.99	15581.8
2891.3	15555.3
2892.61	15560.9
2893.93	15536.2
2895.24	15475
2896.55	15502.7
2897.86	15442.9
2899.17	15409.6
2900.48	15366.1
2901.79	15305.8
2903.1	15242.3
2904.41	15216.8
2905.72	15132.3
2907.03	15077.5
2908.34	15009.9
2909.65	14954.3
2910.96	14909
2912.27	14822.8
2913.57	14777.2
2914.88	14696.8
2916.19	14605.3
2917.5	14560.6
2918.81	14526.7
2920.11	14509.1
2921.42	14400.5
2922.73	14376.2
2924.03	14366.3
2925.34	14426.7
2926.64	14411.2
2927.95	14456.3
2929.26	14413.9
2930.56	14434.2
2931.87	14366.2
2933.17	14347.7
2934.48	14256.4
2935.78	14104.3
2937.09	13936
2938.39	13715.4
2939.69	13348.3
2941	12920.7
2942.3	12471.4
2943.6	11899
2944.91	11353.1
2946.21	10875.4
2947.51	10465.7
2948.81	10167.8
2950.12	9829.36
2951.42	9667.16
2952.72	9541.19
2954.02	9397.84
2955.32	9331.58
2956.62	9221.25
2957.92	9153.75
2959.22	9042.91
2960.52	8960.57
2961.82	8850.08
2963.12	8773.6
2964.42	8522.25
2965.72	8351.92
2967.02	8186
2968.32	8007.4
2969.62	7817.96
2970.92	7621.7
2972.21	7447.89
2973.51	7258.67
2974.81	7077.34
2976.11	6973.15
2977.4	6828.96
2978.7	6655.36
2980	6551.7
2981.29	6431.26
2982.59	6371.86
2983.89	6271.88
2985.18	6192.92
2986.48	6089.34
2987.77	6041.26
2989.07	5976.41
2990.36	5928.55
2991.66	5914.64
2992.95	5885.84
2994.25	5810.77
2995.54	5827.04
2996.84	5809.37
2998.13	5800.47
2999.42	5835.12
3000.72	5801.09
3002.01	5854.21
3003.3	5870.25
3004.59	5855.47
3005.89	5840.85
3007.18	5836.3
3008.47	5797.83
3009.76	5749.3
3011.05	5691.38
3012.34	5597.22
3013.63	5555.02
3014.93	5494.51
3016.22	5405.4
3017.5	5336.39
3018.8	5288.71
3020.09	5221
3021.38	5173.22
3022.67	5113.87
3023.95	5051.6
3025.24	5049.74
3026.53	5003.49
3027.82	4967.66
3029.11	4924.97
3030.4	4916.43
3031.68	4878.43
3032.97	4864.9
3034.26	4864.56
3035.54	4840.77
3036.83	4827.95
3038.12	4793.07
3039.4	4782.03
3040.69	4784.86
3041.98	4817.31
3043.26	4783.94
3044.55	4775.86
3045.83	4791.27
3047.12	4751.15
3048.4	4789.73
3049.69	4767.14
3050.97	4784.94
3052.26	4793.32
3053.54	4765.59
3054.82	4800.32
3056.11	4772.24
3057.39	4783.93
3058.67	4791.37
3059.96	4769.53
3061.24	4811.46
3062.52	4809.4
3063.8	4808.54
3065.09	4809.14
3066.37	4786.57
3067.65	4794.14
3068.93	4795.5
3070.21	4780.48
3071.49	4801.78
3072.77	4784.36
3074.05	4791.47
3075.33	4817.72
3076.61	4803.72
3077.89	4835.46
3079.17	4802.66
3080.45	4797.05
3081.73	4781.84
3083.01	4794.57
3084.29	4787.81
3085.57	4740.3
3086.84	4783.82
3088.12	4771.23
3089.4	4788.1
3090.68	4813.16
3091.95	4792.38
3093.23	4804.29
3094.51	4784.71
3095.79	4777.15
3097.06	4794.9
3098.34	4796.57
3099.61	4857.08
3100.89	4832.54
3102.17	4819.35
3103.44	4825.22
3104.72	4864.3
3105.99	4874.42
3107.27	4879.34
3108.54	4910.04
3109.81	4901.9
3111.09	4882.57
3112.36	4922.51
3113.63	4890.98
3114.91	4931.34
3116.18	4979.05
3117.46	4946.02
3118.73	4965.33
3120	4974.01
3121.27	4984.12
3122.54	4962.3
3123.82	5009.46
3125.09	5010.41
3126.36	4989.25
3127.63	5037.57
3128.9	5075.71
3130.17	5097.64
3131.44	5072
3132.71	5074.78
3133.98	5086.61
3135.25	5113.04
3136.52	5128.75
3137.79	5141.76
3139.06	5146.52
3140.33	5155.08
3141.6	5165.8
3142.86	5149.75
3144.13	5178.59
3145.4	5196.73
3146.67	5222.39
3147.94	5266.27
3149.2	5261.83
3150.47	5257.28
3151.74	5289.05
3153	5301.61
3154.27	5291.88
3155.54	5343.99
3156.8	5363.67
3158.07	5331.33
3159.34	5359.7
3160.6	5381.39
3161.86	5347.25
3163.13	5391.27
3164.4	5385.14
3165.66	5427.44
3166.92	5409.1
3168.19	5448.22
3169.45	5424.16
3170.72	5449.32
3171.98	5491.38
3173.24	5452.36
3174.5	5461.68
3175.77	5460.46
3177.03	5464.94
3178.29	5455.7
3179.56	5467.42
3180.82	5479
3182.08	5465
3183.34	5466.45
3184.6	5468.83
3185.86	5494.62
3187.12	5480.97
3188.38	5487.81
3189.64	5522.56
3190.9	5499.73
3192.16	5524.53
3193.42	5503.19
3194.68	5480.59
3195.94	5512.54
3197.2	5512.36
3198.46	5488.47
3199.72	5480.78
3200.98	5504.43
3202.24	5508.04
3203.49	5539.42
3204.75	5523.2
3206.01	5516.31
3207.27	5530.43
3208.52	5525.91
3209.78	5506.7
3211.04	5504.67
3212.29	5496.56
3213.55	5477.71
3214.81	5490.42
3216.06	5494.58
3217.32	5495.67
3218.57	5499.4
3219.83	5499.44
3221.08	5479.83
3222.34	5471.96
3223.59	5502.21
3224.85	5486.2
3226.1	5488.94
3227.35	5473.33
3228.61	5475.26
3229.86	5482.96
3231.11	5471.06
3232.37	5454.49
3233.62	5456.4
3234.87	5467.82
3236.12	5468.67
3237.38	5462.47
3238.63	5443.84
3239.88	5439.41
3241.13	5444.74
3242.38	5449.78
3243.63	5421.57
3244.89	5422.24
3246.14	5426.38
3247.39	5412.21
3248.64	5399.2
3249.89	5395.14
3251.14	5393.47
3252.39	5393.4
3253.64	5385.63
3254.88	5370.43
3256.13	5375.61
3257.38	5359.91
3258.63	5349.76
3259.88	5332.34
3261.13	5336.85
3262.37	5336.9
3263.62	5338.06
3264.87	5318.32
3266.12	5305.44
3267.36	5305.21
3268.61	5304.38
3269.86	5305.61
3271.1	5314.12
3272.35	5324.25
3273.6	5299.56
3274.84	5303.77
3276.09	5296.87
3277.33	5273.94
3278.58	5264.33
3279.82	5263.1
3281.07	5272.64
3282.31	5271.9
3283.56	5253.63
3284.8	5250
3286.04	5255.69
3287.29	5251.06
3288.53	5235.12
3289.77	5221.29
3291.02	5224.28
3292.26	5222.42
3292.9	5213.94
3294.15	5211.36
3295.39	5200.79
3296.64	5213.83
3297.89	5193.17
3299.14	5189.94
3300.38	5187.12
3301.63	5196.62
3302.88	5201.1
3304.12	5182.54
3305.37	5171.07
3306.62	5159.98
3307.86	5174.05
3309.11	5165.3
3310.35	5179.85
3311.6	5180.25
3312.84	5149.47
3314.09	5127.53
3315.34	5138.99
3316.58	5154.58
3317.82	5139.23
3319.07	5171.3
3320.31	5155.39
3321.56	5146.15
3322.8	5150.07
3324.04	5159.42
3325.29	5151.99
3326.53	5151.67
3327.77	5156.48
3329.01	5128.75
3330.25	5124.05
3331.5	5118.9
3332.74	5121.84
3333.98	5123.16
3335.22	5134.19
3336.46	5133.2
3337.7	5122.38
3338.94	5143.86
3340.19	5087.98
3341.42	5105.45
3342.67	5118.78
3343.9	5091.21
3345.15	5076.86
3346.38	5115.59
3347.62	5065.76
3348.86	5094.64
3350.1	5119.24
3351.34	5121.25
3352.58	5089.36
3353.82	5068.33
3355.06	5092.12
3356.29	5103.89
3357.53	5079.2
3358.77	5056.21
3360	5098.39
3361.24	5053.5
3362.48	5060.53
3363.71	5069.74
3364.95	5071.53
3366.19	5052.28
3367.42	5080.26
3368.66	5076.95
3369.89	5083.97
3371.13	5081.65
3372.36	5067.16
3373.6	5083.77
3374.83	5078.4
3376.07	5080.56
3377.3	5077.42
3378.54	5030.37
3379.77	5086.86
3381	5052.09
3382.24	5067
3383.47	5068.35
3384.7	5047.6
3385.94	5043.15
3387.17	5042.37
3388.4	5029.83
3389.63	5067.6
3390.87	5026.68
3392.1	5010.65
3393.33	5032.61
3394.56	5010.53
3395.79	5032.35
3397.02	5034.44
3398.25	5031.27
3399.48	5026.95
3400.71	5029.26
3401.94	5039.8
3403.17	4990.73
3404.4	5032.32
3405.63	5012.15
3406.86	5031.33
3408.09	5020.62
3409.32	4998.26
3410.55	4991.19
3411.78	5000.62
3413	4978.09
3414.23	5001.94
3415.46	4956.17
3416.69	4982.6
3417.92	4980.88
3419.14	5000.21
3420.37	4965.04
3421.6	4977.07
3422.82	4953.46
3424.05	4970.25
3425.27	4931.42
3426.5	4918.87
3427.73	4916.05
3428.95	4930.56
3430.18	4906.05
3431.4	4919.47
3432.63	4906.24
3433.85	4915.79
3435.08	4881.77
3436.3	4896.45
3437.53	4895.7
3438.75	4869.03
3439.97	4859.62
3441.2	4880.5
3442.42	4856.01
3443.64	4828.86
3444.86	4811.25
3446.09	4821.9
3447.31	4815.18
3448.53	4808.04
3449.75	4779.87
3450.98	4794.86
3452.2	4799.02
3453.42	4783.9
3454.64	4759.3
3455.86	4742.75
3457.08	4755.51
3458.3	4755.76
3459.52	4732.55
3460.74	4715.59
3461.96	4698.07
3463.18	4700.05
3464.4	4676.15
3465.62	4663.5
3466.84	4682.73
3468.06	4668.73
3469.28	4633.76
3470.5	4661.64
3471.72	4622.48
3472.93	4607.6
3474.15	4596.54
3475.37	4560.51
3476.59	4594.05
3477.8	4530.67
3479.02	4527.63
3480.24	4542.74
3481.45	4528.97
3482.67	4488.9
3483.89	4492.56
3485.1	4489.23
3486.32	4470.84
3487.53	4469.59
3488.75	4450.27
3489.96	4416.84
3491.18	4399.21
3492.39	4426.67
3493.61	4388.01
3494.82	4391.49
3496.04	4393.77
3497.25	4346.86
3498.47	4336.32
3499.68	4314.23
