#Acq. time (s)=	10
#Accumulations=	10
#Range (cm-¹)=	400...3500
#Windows=	3
#Auto scanning=	Off
#Autofocus=	Off
#AutoExposure=	Off
#Spike filter=	Multiple accum.
#Delay time (s)=	0
#Binning=	1
#Readout mode=	Signal
#DeNoise=	Off
#ICS correction=	On
#Dark correction=	Off
#Inst. Process=	Off
#Detector Gain=	Best Dynamic Range
#Detector ADC=	45 kHz       
#Detector temperature (°C)=	-60.1
#Instrument=	LabRAM HR Evol
#Detector=	Syncerity OE
#Objective=	x50_VIS_LWD
#Grating=	600 (500nm)
#ND Filter=	50%
#Laser=	532nm_Edge
#Hole=	199.981
#Range=	Visible
#E-Cal_Neon=	0
#StageXY=	75x50mm Scan+
#StageZ=	Z motor
#X (µm)=	0
#Y (µm)=	0
#Z (µm)=	250.6
#Spectral res.(cm-¹)=	12.8
#Full time(mm:ss)=	5:19
#AC=	Calibrated 2025-07-01 10:31
#Project=	
#Sample=	
#Site=	
#Title=	D_1
#Remark=	
#Date=	01.07.2025 11:52 (India Standard Time)
#Acquired=	01.07.2025 11:52:33 (India Standard Time)
#AxisType[0]=Intens
#AxisUnit[0]=Cnt
#AxisType[1]=Spectr
#AxisUnit[1]=1/cm
400.083	22963.3
401.858	22896.4
403.63	22819.5
405.405	22852.1
407.176	22870.7
408.949	22918
410.72	22892
412.493	22849.5
414.263	22862.1
416.033	22887
417.805	22951.9
419.574	22856.5
421.345	22876.1
423.114	22846
424.884	22867.1
426.652	22846.5
428.421	22907
430.188	22899.3
431.955	22859.1
433.724	22843
435.49	22925.3
437.258	22805.1
439.023	22787.4
440.788	22827.3
442.555	22760.4
444.32	22711
446.084	22752.2
447.85	22749.2
449.613	22712.3
451.376	22714.2
453.141	22678.5
454.904	22674.7
456.666	22633.2
458.429	22624.7
460.191	22641.3
461.952	22571.4
463.715	22579.8
465.475	22628.9
467.235	22631.7
468.995	22541
470.756	22590.7
472.515	22619.2
474.274	22478.8
476.032	22580.9
477.793	22547.4
479.55	22557.2
481.308	22482.3
483.065	22536.1
484.823	22504.4
486.58	22500.5
488.336	22533.1
490.091	22507.9
491.847	22477.7
493.604	22406.7
495.358	22422.5
497.113	22554.8
498.867	22514.7
500.62	22478.2
502.374	22605.1
504.127	22573.6
505.881	22567.2
507.634	22524.8
509.386	22505
511.137	22532.1
512.888	22555.7
514.639	22522.7
516.39	22491.9
518.14	22485.7
519.89	22523.8
521.642	22476.1
523.391	22427.9
525.14	22447.5
526.889	22443.4
528.637	22361.4
530.385	22362.8
532.133	22300.2
533.88	22313.8
535.627	22349
537.373	22247.4
539.12	22236.1
540.866	22206.6
542.611	22270.6
544.357	22219.3
546.101	22192.1
547.846	22183.4
549.59	22189.1
551.334	22164.1
553.078	22172
554.821	22156.3
556.564	22229.9
558.307	22200.7
560.049	22147.6
561.789	22169.1
563.53	22140.7
565.272	22153.1
567.013	22130.2
568.753	22096.3
570.494	22109
572.233	22140.2
573.973	22074.5
575.712	22037.4
577.449	22052.1
579.188	22075.6
580.926	22082.1
582.664	22049.3
584.402	22066.4
586.139	22085.2
587.876	22126.3
589.611	22095.6
591.347	22049.4
593.083	21994.5
594.818	22050.4
596.554	22091.9
598.287	22035.5
600.021	22029.4
601.756	22075.2
603.49	22021.2
605.221	22013.9
606.955	21984.4
608.688	21992.1
610.42	21947.4
612.15	21889.6
613.882	21933.7
615.614	21892.3
617.345	21824.2
619.074	21802.8
620.805	21749.3
622.535	21804
624.263	21718.4
625.993	21723.6
627.722	21687.3
629.45	21675.4
631.178	21704.8
632.907	21646.6
634.633	21649.1
636.36	21658
638.088	21718
639.813	21722.2
641.539	21748.3
643.264	21586.3
644.99	21575.2
646.716	21532.1
648.439	21597
650.164	21517
651.887	21490
653.611	21541.5
655.335	21507.8
657.057	21474
658.781	21541.8
660.502	21509.1
662.225	21458.8
663.945	21436.1
665.667	21496.7
667.387	21429.4
669.108	21428.2
670.828	21445.6
672.548	21416.2
674.267	21391.4
675.987	21357.5
677.705	21426.1
679.424	21316
681.142	21385.1
682.86	21415.7
684.577	21341.4
686.293	21403
688.011	21419.6
689.727	21333.2
691.444	21409.6
693.159	21406.9
694.875	21348.4
696.59	21426.3
698.304	21401.6
700.019	21345.1
701.733	21385.2
703.448	21298.5
705.16	21281
706.872	21249.1
708.586	21296.6
710.298	21201.6
712.01	21167.5
713.723	21238.4
715.433	21219.4
717.144	21104.9
718.856	21171.8
720.565	21269
722.275	21188.3
723.984	21153.1
725.695	21158.8
727.403	21195.8
729.111	21153.5
730.821	20989.3
732.528	21015.4
734.235	21077.8
735.942	21116.8
737.651	21053
739.357	21044
741.063	21016.1
742.768	20916.3
744.474	20974
746.18	20999.6
747.885	21013.5
749.589	21016.9
751.293	21016.1
752.997	21006.7
754.702	20996.8
756.405	21023.6
758.108	21015.5
759.81	21004.9
761.512	21005.9
763.214	20958.5
764.915	20962.3
766.618	21046
768.319	21025.8
770.019	20952.3
771.719	21023.9
773.419	21026.6
775.118	20986.3
776.817	21034.9
778.516	21057.8
780.214	20919.8
781.913	20967
783.61	20951.4
785.308	20956.7
787.005	20958.7
788.702	20892.9
790.398	20851.9
792.095	20829.5
793.791	20867.5
795.486	20722.9
797.181	20788.9
798.876	20843.4
800.571	20797.3
802.265	20863.9
803.959	20860.6
805.653	20732.5
807.346	20810.4
809.039	20778
810.732	20706.9
812.424	20701.6
814.116	20734
815.808	20647.2
817.5	20664.1
819.191	20691.9
820.881	20728.9
822.572	20743.6
824.26	20830.8
825.95	20798.2
827.639	20744.4
829.329	20725.2
831.018	20745.9
832.706	20738.3
834.394	20719.7
836.08	20733.5
837.768	20720.3
839.455	20743.8
841.142	20787
842.829	20834.4
844.513	20846.4
846.199	20777.4
847.885	20815.8
849.57	20716.4
851.255	20828.2
852.938	20746.5
854.623	20776.3
856.307	20784.8
857.991	20794.3
859.672	20814.8
861.355	20767.4
863.038	20838.2
864.719	20785.6
866.401	20741.9
868.083	20736.4
869.765	20746.3
871.444	20748.7
873.125	20817
874.806	20764.2
876.484	20815.4
878.164	20690.4
879.844	20647.1
881.521	20629.8
883.2	20606.4
884.877	20588.9
886.555	20550.2
888.234	20659.1
889.909	20572.4
891.587	20534.1
893.262	20506.1
894.939	20415.8
896.616	20393.2
898.29	20384.7
899.966	20295.6
901.64	20310.5
903.315	20241.6
904.988	20273.4
906.663	20240.5
908.335	20149.8
910.009	20229.4
911.683	20171.6
913.354	20133.7
915.027	20131.1
916.698	20110
918.369	20094.1
920.041	20101.1
921.711	20036.3
923.383	20061.4
925.052	19991.5
926.723	20010.7
928.391	19958.4
930.062	19875.9
931.73	19876.8
933.399	19861.9
935.067	19823.1
936.734	19877.6
938.403	19890.7
940.069	19907.6
941.737	19926.6
943.403	19924.8
945.069	19822.9
946.736	19828.5
948.401	19825.4
950.065	19836.1
951.732	19866.6
953.396	19820
955.059	19862.5
956.725	19843.4
958.388	19833.2
960.051	19856.7
961.715	19893.3
963.377	19857.7
965.039	19870.9
966.7	19729.9
968.364	19779
970.025	19776.3
971.685	19682.3
973.345	19690.5
975.007	19727
976.667	19630.1
978.326	19665.6
979.985	19611.8
981.646	19754.8
983.304	19666.1
984.963	19739.1
986.62	19741.7
988.278	19801
989.935	19783.7
991.594	19817.8
993.25	19845
994.907	19870.8
996.563	19964.2
998.218	20149
999.874	20228
1001.53	20326
1003.19	20232
1004.84	20230
1006.49	20080.1
1008.15	19908.6
1009.8	19928.1
1011.45	19792.1
1013.11	19766.1
1014.76	19738.6
1016.41	19710
1018.06	19727.6
1019.72	19666.9
1021.37	19638.3
1023.02	19600
1024.67	19550.2
1026.32	19533.5
1027.97	19469.3
1029.62	19503.1
1031.27	19428.8
1032.92	19429.6
1034.57	19372.8
1036.22	19375.8
1037.86	19376.5
1039.51	19383.4
1041.16	19327
1042.81	19339.4
1044.45	19352.3
1046.1	19313
1047.75	19356.3
1049.39	19331.1
1051.04	19404.7
1052.68	19365.8
1054.33	19365.3
1055.97	19457.2
1057.62	19500.5
1059.26	19502.4
1060.91	19569.6
1062.55	19549.6
1064.19	19502.7
1065.83	19519.9
1067.48	19466.3
1069.12	19427.2
1070.76	19399.4
1072.4	19431.4
1074.04	19414
1075.68	19381.9
1077.32	19484.8
1078.97	19480.2
1080.61	19418.3
1082.24	19409.7
1083.88	19336.6
1085.52	19362.9
1087.16	19335.1
1088.8	19319.4
1090.44	19156.1
1092.08	19192.6
1093.71	19145.9
1095.35	19122.7
1096.99	19053.9
1098.62	19011.3
1100.26	18941.6
1101.9	18932.4
1103.53	18895.2
1105.17	18841.8
1106.8	18932.8
1108.44	18914.3
1110.07	18928.9
1111.7	18957.6
1113.34	18956.1
1114.97	18994.8
1116.6	19003.4
1118.23	19061.1
1119.87	19069.2
1121.5	19125.8
1123.13	19055
1124.76	19084.1
1126.39	19079.5
1128.03	18962
1129.65	18953.3
1131.29	18872.9
1132.91	18802.2
1134.54	18732.5
1136.17	18783.8
1137.8	18714.6
1139.43	18766.6
1141.06	18745.2
1142.69	18807.6
1144.31	18953
1145.94	19148.8
1147.57	19323.1
1149.19	19450.9
1150.82	19827.1
1152.45	20051
1154.07	20233.3
1155.7	20276.2
1157.32	20087.7
1158.95	19787.6
1160.57	19418.1
1162.2	19083.3
1163.82	18817.1
1165.44	18625.4
1167.07	18481.6
1168.69	18493.8
1170.31	18477
1171.94	18403.5
1173.56	18399.4
1175.18	18323
1176.8	18251
1178.42	18245.6
1180.04	18251.9
1181.66	18232.2
1183.28	18272.6
1184.9	18319.1
1186.52	18239.1
1188.14	18312.6
1189.76	18305.9
1191.38	18223.9
1192.99	18223.6
1194.61	18215.1
1196.23	18139.2
1197.85	18128.9
1199.46	18041.3
1201.08	18057.9
1202.7	17998.7
1204.31	18029.1
1205.93	18026.1
1207.54	17973.1
1209.16	17984.9
1210.78	17946.2
1212.39	17958.4
1214	17967.8
1215.62	17893.5
1217.23	17802.7
1218.84	17762.9
1220.46	17781.1
1222.07	17745.6
1223.68	17774.6
1225.29	17752.6
1226.91	17765.9
1228.52	17769.8
1230.13	17669.7
1231.74	17715
1233.35	17718.3
1234.96	17682.3
1236.57	17684.1
1238.18	17725.9
1239.79	17799.9
1241.4	17754.6
1243	17841.7
1244.61	17900.4
1246.22	17906.1
1247.83	17851.6
1249.43	17910.5
1251.04	17849
1252.65	17801.1
1254.25	17883.6
1255.86	17887.4
1257.47	17892.5
1259.07	17863.8
1260.68	17893.7
1262.28	17851.6
1263.89	17925
1265.49	17938.3
1267.09	17887.7
1268.7	17814.6
1270.3	17769.2
1271.9	17790.3
1273.51	17699.2
1275.11	17689.8
1276.71	17652.4
1278.31	17672.8
1279.91	17642.2
1281.52	17637.5
1283.12	17593.7
1284.72	17636.1
1286.32	17636.8
1287.92	17691.9
1289.52	17763
1291.12	17772.8
1292.72	17855.4
1294.31	17977.5
1295.91	18078.1
1297.51	18063.4
1299.11	18032.1
1300.71	18068.5
1302.3	18046.6
1303.9	17939.7
1305.5	17949.6
1307.09	17807.5
1308.69	17772.4
1310.28	17679.7
1311.88	17587.5
1313.47	17533.9
1315.07	17477.3
1316.66	17391
1318.26	17343
1319.85	17398.3
1321.44	17227.2
1323.04	17265
1324.63	17167.2
1326.22	17194.2
1327.82	17199.3
1329.41	17206.2
1331	17134.9
1332.59	17118
1334.18	17040.5
1335.77	17085.2
1337.36	17105.3
1338.95	17028.2
1340.54	17024.7
1342.13	16998
1343.72	17008.9
1345.31	16966.8
1346.9	16955.4
1348.49	17029.7
1350.07	16925.1
1351.66	16921.1
1353.25	16906.7
1354.84	16842.7
1356.42	16753.1
1358.01	16807
1359.6	16814.9
1361.18	16766.9
1362.77	16732.9
1364.35	16736.4
1365.94	16710.2
1367.52	16646.7
1369.11	16675.8
1370.69	16650.5
1372.28	16622.1
1373.86	16601.7
1375.44	16439.1
1377.02	16492.4
1378.61	16460.2
1380.19	16460.7
1381.77	16458.2
1383.35	16434.6
1384.93	16334.7
1386.52	16386.2
1388.1	16442.1
1389.68	16447.6
1391.26	16430.2
1392.84	16340.6
1394.41	16356
1396	16331.3
1397.57	16353.2
1399.15	16275.1
1400.73	16316.8
1402.31	16316.3
1403.89	16320.8
1405.46	16332.4
1407.04	16350.6
1408.62	16344.1
1410.19	16322.9
1411.77	16341.6
1413.35	16402
1414.92	16401.9
1416.5	16405.6
1418.07	16531.3
1419.65	16481.8
1421.22	16490.5
1422.8	16529.5
1424.37	16558.7
1425.94	16618.1
1427.52	16797.5
1429.09	16913.6
1430.66	17156.9
1432.23	17285.9
1433.8	17541.5
1435.38	17588.6
1436.95	17687
1438.52	17755
1440.09	17731.1
1441.66	17679.7
1443.23	17639.8
1444.8	17519
1446.37	17508
1447.94	17385.3
1449.51	17404.5
1451.08	17284.9
1452.65	17239
1454.22	17234.3
1455.78	17165.8
1457.35	17143.3
1458.92	17033.5
1460.48	16955.9
1462.05	16828.6
1463.62	16717.8
1465.18	16680.3
1466.75	16507.6
1468.31	16414.8
1469.88	16288.6
1471.44	16234.2
1473.01	16117.5
1474.57	16016.2
1476.14	15947
1477.7	15886.3
1479.26	15811.4
1480.83	15756.4
1482.39	15697
1483.95	15689
1485.51	15737.4
1487.08	15686.6
1488.64	15629.2
1490.2	15657.8
1491.76	15687.1
1493.32	15654.1
1494.88	15789.1
1496.44	15727.9
1498	15795.1
1499.56	15781.9
1501.12	15825.6
1502.68	15868
1504.24	15949.1
1505.8	16030.3
1507.35	16224.6
1508.91	16316.5
1510.47	16527
1512.03	16632.7
1513.58	16798.3
1515.14	16961.1
1516.69	17116
1518.25	17199.6
1519.81	17199.1
1521.36	17234.2
1522.92	17130.1
1524.47	17013.6
1526.03	16736.8
1527.58	16559.4
1529.13	16250.5
1530.69	16075.9
1532.24	15859.7
1533.79	15674.2
1535.35	15454.5
1536.9	15347.1
1538.45	15371.8
1540	15267.9
1541.55	15250.4
1543.11	15235.6
1544.66	15180.4
1546.21	15188.8
1547.76	15089.4
1549.31	15117.1
1550.86	15061.6
1552.41	15157.9
1553.96	15057.2
1555.5	15056.8
1557.05	15031.5
1558.6	14975.9
1560.15	14945.8
1561.7	14975
1563.24	14974.4
1564.79	14988
1566.34	14957.6
1567.88	14909.3
1569.43	14922.2
1570.98	14932.3
1572.52	14970
1574.07	14898.3
1575.61	14906.7
1577.16	14903.8
1578.7	14894.5
1580.25	14905
1581.79	14921.6
1583.34	14914.8
1584.88	14886
1586.42	14888.4
1587.96	14875.5
1589.51	14868.2
1591.05	14926.9
1592.59	14824.3
1594.13	14839.7
1595.67	14829.7
1597.21	14841.5
1598.76	14849.2
1600.3	14880.3
1601.83	14788.7
1603.37	14904.3
1604.92	14753
1606.45	14757.7
1607.99	14805.9
1609.53	14785
1611.07	14745.7
1612.61	14776.9
1614.15	14734.1
1615.68	14717.8
1617.22	14716.1
1618.76	14716.6
1620.29	14671.9
1621.83	14650.7
1623.37	14636.2
1624.9	14653.3
1626.44	14640.9
1627.97	14653.9
1629.51	14668.4
1631.04	14684
1632.58	14643.9
1634.11	14656.8
1635.64	14664.7
1637.18	14683.1
1638.71	14683.6
1640.24	14744.2
1641.78	14734
1643.31	14765.2
1644.84	14842.1
1646.37	14951.7
1647.9	15021.5
1649.44	15054.9
1650.97	15152.2
1652.5	15076.5
1654.03	15124.1
1655.56	15103.3
1657.09	14988.7
1658.62	14896.1
1660.14	14778.6
1661.67	14702.7
1663.2	14643.4
1664.73	14600.7
1666.26	14565.1
1667.79	14534.7
1669.31	14504.3
1670.84	14507.1
1672.37	14387.6
1673.89	14439.4
1675.42	14344.8
1676.95	14316.1
1678.47	14218.3
1680	14227
1681.52	14180.1
1683.05	14145.5
1684.57	14082.9
1686.1	13977.9
1687.62	14030
1689.14	13932.1
1690.67	13934.8
1692.19	13934.2
1693.71	13905.7
1695.23	13855.3
1696.76	13877.2
1698.28	13810.8
1699.8	13754.4
1701.32	13740.4
1702.84	13714.3
1704.36	13706.5
1705.88	13663.8
1707.4	13654.7
1708.92	13684.7
1710.44	13656.7
1711.96	13623.1
1713.48	13539.5
1715	13567.1
1716.52	13550.3
1718.04	13525.9
1719.56	13495.9
1721.07	13515.2
1722.59	13547.5
1724.11	13558.3
1725.63	13533.5
1727.14	13526.9
1728.66	13544.8
1730.17	13541.1
1731.69	13513.4
1733.2	13585.6
1734.72	13611.3
1736.23	13591.7
1737.75	13614.3
1739.26	13650.4
1740.78	13634.9
1742.29	13598
1743.8	13595
1745.32	13571.4
1746.83	13512
1748.34	13569
1749.86	13525.4
1751.37	13483.2
1752.88	13428.4
1754.39	13329.5
1755.9	13331.1
1757.41	13264.9
1758.92	13256.1
1760.43	13224.1
1761.94	13242.1
1763.45	13192.9
1764.96	13073.5
1766.47	13146.5
1767.98	13121.1
1769.49	13110
1771	13129.7
1772.5	13102.3
1774.01	13082.4
1775.52	13068.1
1777.03	13058
1778.53	13058
1780.04	13067.3
1781.55	13065.9
1783.05	12970.7
1784.56	12977
1786.06	13004.9
1787.57	13039.6
1789.07	12978.9
1790.58	12951.1
1792.08	13027.6
1793.59	12973.6
1795.09	12970.3
1796.59	12909.6
1798.1	12890.4
1799.6	12888.3
1801.1	12851.5
1802.61	12807.7
1804.11	12869.4
1805.61	12836
1807.11	12838.2
1808.61	12793.3
1810.11	12818
1811.61	12805.3
1813.11	12779.3
1814.61	12802.3
1816.11	12786.7
1817.61	12758
1819.11	12700.5
1820.61	12722.4
1822.11	12724.9
1823.61	12721.3
1825.11	12672.1
1826.6	12676
1828.1	12695.9
1829.6	12676
1831.1	12658.8
1832.59	12600.5
1834.09	12614.5
1835.59	12562.7
1837.08	12627.4
1838.58	12627.4
1840.07	12581.5
1841.57	12628
1843.06	12570.4
1844.56	12620.6
1846.05	12605.7
1847.54	12550.4
1849.04	12555.7
1850.53	12537.6
1852.02	12508.3
1853.52	12493.8
1855.01	12543.2
1856.5	12440.9
1857.99	12473.1
1859.49	12470.7
1860.98	12425.6
1862.47	12397.3
1863.96	12449.8
1865.45	12395.5
1866.94	12361.3
1868.43	12392.9
1869.92	12416.3
1871.41	12398.9
1872.9	12312
1874.39	12352.8
1875.88	12385.3
1877.37	12346.6
1878.85	12350.3
1880.34	12354.2
1881.83	12282.4
1883.32	12277.7
1884.8	12284.1
1886.29	12241.9
1887.78	12192.8
1889.26	12263.3
1890.75	12244.1
1892.23	12166.4
1893.72	12158.5
1895.21	12191.2
1896.69	12168
1898.17	12130
1899.66	12083.2
1901.14	12046.2
1902.63	12046.1
1904.11	11948.8
1905.59	11899.4
1907.08	11955.2
1908.56	11920.1
1910.04	11891.5
1911.52	11821.2
1913	11825.3
1914.49	11740.1
1915.97	11725.1
1917.45	11675.9
1918.93	11650.8
1920.41	11615.5
1921.89	11585.4
1923.37	11550.3
1924.85	11509.1
1926.33	11497.6
1927.81	11415
1929.29	11455.3
1930.76	11415
1932.24	11366.8
1933.72	11362.4
1935.2	11322.8
1936.67	11268.4
1938.15	11250.9
1939.63	11242
1941.1	11166.3
1942.58	11150.2
1944.06	11113.8
1945.53	11110.6
1947.01	11107.9
1948.48	11048.8
1949.96	10997.1
1951.43	10986.5
1952.91	10918.3
1954.38	10898.9
1955.86	10833.7
1957.33	10822.7
1958.8	10817.1
1960.27	10766.1
1961.75	10740.3
1963.22	10727.6
1964.69	10657.1
1966.16	10658.5
1967.64	10640
1969.11	10574.7
1970.58	10568.2
1972.05	10585.8
1973.52	10512.5
1974.99	10517.4
1976.46	10452.8
1977.93	10453.4
1979.4	10444
1980.87	10407.9
1982.34	10349.4
1983.81	10328.8
1985.27	10344.6
1986.74	10294
1988.21	10274
1989.68	10230
1991.14	10186.7
1992.61	10144.5
1994.08	10142
1995.55	10066.5
1997.01	10061.3
1998.48	10029.7
1999.94	9975.6
2001.41	9972.84
2002.87	9938.02
2004.34	9930.17
2005.8	9889.42
2007.27	9899.9
2008.73	9885.05
2010.19	9835.64
2011.66	9833.07
2013.12	9808.05
2014.58	9766.4
2016.05	9745.53
2017.51	9745.55
2018.97	9720.48
2020.43	9697.65
2021.89	9658.02
2023.36	9623.39
2024.82	9604.26
2026.28	9589.24
2027.74	9547.96
2029.2	9523.52
2030.66	9526.67
2032.12	9510.1
2033.58	9472.51
2035.04	9456.73
2036.49	9434.66
2037.95	9394.89
2039.41	9376.14
2040.87	9389.78
2042.33	9380.38
2043.78	9361.94
2045.24	9331.14
2045.76	9314.69
2047.22	9263.59
2048.69	9299.01
2050.15	9273.87
2051.61	9304.44
2053.07	9262.68
2054.54	9221.24
2056	9257.16
2057.46	9206.11
2058.92	9241.54
2060.38	9187.95
2061.84	9206.23
2063.3	9169.92
2064.76	9235.93
2066.22	9181.79
2067.68	9202.37
2069.14	9182.82
2070.6	9161.66
2072.06	9149.46
2073.52	9114.62
2074.98	9145.84
2076.44	9159.32
2077.89	9152.03
2079.35	9111.47
2080.81	9092.92
2082.27	9100.91
2083.72	9082.78
2085.18	9078.78
2086.63	9111.87
2088.09	9061.27
2089.55	9065.06
2091	8988.54
2092.46	9061.45
2093.91	9017.92
2095.37	8959.57
2096.82	9051.79
2098.28	8989.61
2099.73	8982.29
2101.18	8959.47
2102.64	8973.97
2104.09	8991.1
2105.54	8941.05
2106.99	8974.89
2108.45	8908.84
2109.9	8924.95
2111.35	8888.9
2112.8	8891.65
2114.25	8903.2
2115.71	8866.66
2117.16	8888.49
2118.61	8894.02
2120.06	8871.43
2121.51	8865.92
2122.96	8842.02
2124.4	8835.93
2125.85	8864.21
2127.3	8816.06
2128.75	8829.6
2130.2	8796.08
2131.65	8813.63
2133.09	8805.17
2134.54	8776.43
2135.99	8767.94
2137.44	8813.44
2138.88	8753.96
2140.33	8778.11
2141.78	8748.17
2143.22	8731.21
2144.67	8722.54
2146.11	8729.33
2147.56	8751.14
2149	8704.23
2150.45	8706.89
2151.89	8733.26
2153.34	8702.04
2154.78	8743.67
2156.22	8676.93
2157.67	8713.38
2159.11	8653.06
2160.55	8622.59
2162	8648.48
2163.44	8656.66
2164.88	8674.06
2166.32	8633.27
2167.76	8656.02
2169.2	8618.23
2170.64	8650.62
2172.09	8633.2
2173.53	8628.43
2174.97	8645.68
2176.41	8581.44
2177.85	8573.98
2179.29	8564.06
2180.72	8545.91
2182.16	8563.59
2183.6	8536.64
2185.04	8559.89
2186.48	8520.45
2187.92	8540.24
2189.35	8467.79
2190.79	8496.65
2192.23	8523.32
2193.66	8470.96
2195.1	8513.55
2196.54	8455.42
2197.97	8468.03
2199.41	8460.64
2200.84	8424.48
2202.28	8457.43
2203.71	8433.68
2205.15	8442
2206.58	8389.23
2208.02	8394.23
2209.45	8412.95
2210.88	8364.48
2212.32	8345.34
2213.75	8341.81
2215.18	8342.36
2216.62	8354.93
2218.05	8316.02
2219.48	8315.09
2220.91	8310.17
2222.34	8298.91
2223.78	8278.22
2225.21	8253.48
2226.64	8266.52
2228.07	8257.31
2229.5	8239.04
2230.93	8228.08
2232.36	8226.77
2233.79	8198.23
2235.22	8201.68
2236.65	8202.3
2238.07	8168.4
2239.5	8175.78
2240.93	8192.62
2242.36	8101.98
2243.79	8131.8
2245.21	8130.07
2246.64	8086.04
2248.07	8067.14
2249.49	8105.54
2250.92	8104.62
2252.35	8052.96
2253.77	8078.81
2255.2	8039.29
2256.62	8048.8
2258.05	8020.68
2259.47	8042.63
2260.9	7997.77
2262.32	7963.99
2263.75	7953.58
2265.17	7944.76
2266.59	7926.19
2268.02	7921.65
2269.44	7890.86
2270.86	7923.68
2272.29	7902.51
2273.71	7853.24
2275.13	7853.72
2276.55	7853.66
2277.97	7850.51
2279.39	7829.53
2280.81	7839.78
2282.24	7848.13
2283.66	7767.98
2285.08	7796.35
2286.5	7775.54
2287.92	7785.86
2289.34	7723.54
2290.75	7754.27
2292.17	7731.9
2293.59	7734.32
2295.01	7738.45
2296.43	7735.84
2297.85	7703.33
2299.26	7661.79
2300.68	7701.09
2302.1	7669.21
2303.51	7636.49
2304.93	7673.98
2306.35	7627.99
2307.76	7631.59
2309.18	7627.43
2310.6	7623.32
2312.01	7610.01
2313.43	7613.28
2314.84	7591.39
2316.25	7598.75
2317.67	7539.78
2319.08	7544.99
2320.5	7532.48
2321.91	7533.71
2323.32	7584.08
2324.74	7591.06
2326.15	7680.48
2327.56	7742.03
2328.98	7815.56
2330.39	7732.69
2331.8	7566.16
2333.21	7440.82
2334.62	7462.85
2336.03	7417.71
2337.44	7414.66
2338.85	7393.87
2340.26	7417
2341.67	7395.09
2343.08	7387.2
2344.49	7354.29
2345.9	7378.16
2347.31	7360.39
2348.72	7358.3
2350.13	7312.09
2351.54	7345.56
2352.94	7248.11
2354.35	7282.41
2355.76	7260.37
2357.17	7232.1
2358.57	7248.56
2359.98	7215.84
2361.39	7215.25
2362.79	7195.89
2364.2	7225.14
2365.6	7187.06
2367.01	7200.66
2368.41	7192.59
2369.82	7156.22
2371.22	7169.89
2372.63	7134.89
2374.03	7130.11
2375.44	7122.33
2376.84	7128.71
2378.24	7136.93
2379.65	7131.4
2381.05	7094.37
2382.45	7113.87
2383.85	7102.58
2385.26	7064.32
2386.66	7062.59
2388.06	7065.74
2389.46	7057.83
2390.86	7035.23
2392.26	7040.19
2393.66	7069.25
2395.06	7058.73
2396.46	7004.92
2397.86	7011.28
2399.26	6980.92
2400.66	6976.27
2402.06	6991.44
2403.46	6983.87
2404.86	6956.37
2406.26	6931.11
2407.66	6962.79
2409.05	6971.53
2410.45	6939.34
2411.85	6939.25
2413.24	6918
2414.64	6914.47
2416.04	6901.19
2417.43	6869.68
2418.83	6919.1
2420.23	6888.88
2421.62	6865.75
2423.02	6866.69
2424.41	6856.01
2425.81	6865.55
2427.2	6866.33
2428.6	6852.91
2429.99	6827.36
2431.38	6852.63
2432.78	6815.78
2434.17	6834.47
2435.56	6812.06
2436.96	6783.18
2438.35	6801.71
2439.74	6769.66
2441.13	6798.52
2442.53	6717.77
2443.92	6754.47
2445.31	6734.49
2446.7	6740.94
2448.09	6758.04
2449.48	6753.5
2450.87	6706.13
2452.26	6708.54
2453.65	6680.5
2455.04	6675.31
2456.43	6683.21
2457.82	6681.7
2459.21	6694.56
2460.6	6617.18
2461.98	6648.23
2463.37	6649.03
2464.76	6633.04
2466.15	6625.39
2467.53	6620.17
2468.92	6619.56
2470.31	6597.81
2471.7	6591.1
2473.08	6613.89
2474.47	6556.14
2475.85	6571.04
2477.24	6517.48
2478.63	6577.62
2480.01	6562.99
2481.39	6558.1
2482.78	6522.58
2484.16	6527.96
2485.55	6526.76
2486.93	6513.42
2488.32	6520.93
2489.7	6529.54
2491.08	6502.43
2492.46	6495.44
2493.85	6467.41
2495.23	6454.4
2496.61	6455.83
2497.99	6483.19
2499.38	6436.06
2500.76	6489.11
2502.14	6439.17
2503.52	6428.2
2504.9	6433.78
2506.28	6422.32
2507.66	6387.22
2509.04	6383.22
2510.42	6377.53
2511.8	6363.39
2513.18	6370.73
2514.56	6376.07
2515.94	6348.2
2517.31	6356.17
2518.69	6342.32
2520.07	6334.17
2521.45	6333.99
2522.82	6328.26
2524.2	6326.92
2525.58	6301.03
2526.96	6292.9
2528.33	6323.31
2529.71	6288.86
2531.09	6291.22
2532.46	6260.05
2533.84	6261.32
2535.21	6269.13
2536.59	6265.98
2537.96	6262.35
2539.34	6241.48
2540.71	6226.26
2542.08	6229.93
2543.46	6218.88
2544.83	6239.47
2546.2	6181.71
2547.58	6186.16
2548.95	6164.58
2550.32	6164.41
2551.7	6167.95
2553.07	6172.16
2554.44	6177.45
2555.81	6143.45
2557.18	6155.24
2558.55	6153.14
2559.92	6144.63
2561.29	6125.08
2562.66	6118.02
2564.03	6076.51
2565.4	6094.61
2566.77	6088.92
2568.14	6047.06
2569.51	6071.62
2570.88	6066.56
2572.25	6066.94
2573.62	6065.42
2574.99	6062.81
2576.35	6065.48
2577.72	6045.58
2579.09	6063.35
2580.46	6047.21
2581.82	6021.15
2583.19	6032.02
2584.56	6030.25
2585.92	6034.69
2587.29	6038.71
2588.65	6009.35
2590.02	6036.69
2591.38	6017.5
2592.75	6010.07
2594.11	6017.91
2595.48	6006.09
2596.84	6023.17
2598.21	5962.82
2599.57	5978.2
2600.93	5945.43
2602.3	5960.44
2603.66	5971.5
2605.02	5956.63
2606.39	5982.65
2607.75	5992
2609.11	5998.45
2610.47	5930.58
2611.83	5941.28
2613.19	5956.57
2614.56	5928.87
2615.92	5917.91
2617.28	5909.62
2618.64	5891.93
2620	5900.47
2621.36	5903.28
2622.72	5901.78
2624.08	5895.09
2625.44	5890.25
2626.8	5887.04
2628.15	5878.96
2629.51	5861.34
2630.87	5819.49
2632.23	5836.34
2633.59	5844.45
2634.94	5847.05
2636.3	5847.86
2637.66	5830.57
2639.01	5820.81
2640.37	5831.18
2641.73	5787.83
2643.08	5823.18
2644.44	5817.6
2645.79	5842.43
2647.15	5806.37
2648.5	5786.21
2649.86	5797.77
2651.21	5780.36
2652.57	5804.65
2653.92	5776.39
2655.28	5781.35
2656.63	5802.04
2657.98	5757.99
2659.33	5767.35
2660.69	5794.85
2662.04	5774.11
2663.39	5761.42
2664.75	5747.53
2666.1	5762.92
2667.45	5758.45
2668.8	5777.23
2670.15	5734.15
2671.5	5761.02
2672.85	5705.73
2674.2	5724.23
2675.55	5723.83
2676.9	5714.2
2678.25	5697.14
2679.6	5676.38
2680.95	5694.66
2682.3	5685.11
2683.65	5702.35
2685	5642.91
2686.35	5666.75
2687.7	5660.32
2689.04	5678.87
2690.39	5663.56
2691.74	5643.91
2693.09	5663.35
2694.43	5644.42
2695.78	5657.19
2697.13	5644.26
2698.47	5590.33
2699.82	5640.49
2701.16	5626.45
2702.51	5649.93
2703.85	5641.28
2705.2	5668.64
2706.54	5633.87
2707.89	5661.29
2709.23	5644.51
2710.58	5624.06
2711.92	5607.19
2713.26	5642.2
2714.61	5633.86
2715.95	5629.73
2717.29	5629.84
2718.64	5640.95
2719.98	5624.73
2721.32	5622.58
2722.66	5581.64
2724	5585.82
2725.35	5596.01
2726.69	5581.1
2728.03	5583.43
2729.37	5581.34
2730.71	5561.92
2732.05	5598.04
2733.39	5560.83
2734.73	5516.94
2736.07	5516.21
2737.41	5524.43
2738.75	5483.82
2740.09	5494.12
2741.42	5459.67
2742.76	5493.29
2744.1	5479.15
2745.44	5461.6
2746.78	5444.13
2748.11	5404.83
2749.45	5411.89
2750.79	5388.48
2752.12	5411.78
2753.46	5398.77
2754.8	5368
2756.13	5387.23
2757.47	5367.38
2758.81	5368.8
2760.14	5366.92
2761.47	5342.27
2762.81	5370.89
2764.14	5346.46
2765.48	5323.4
2766.81	5319.82
2768.15	5310.67
2769.48	5297.78
2770.81	5308.55
2772.15	5270.96
2773.48	5302.51
2774.81	5316.61
2776.14	5304.32
2777.48	5278.77
2778.81	5270.97
2780.14	5248.79
2781.47	5257.48
2782.8	5229.12
2784.13	5232.04
2785.47	5207.79
2786.8	5259.3
2788.13	5208.97
2789.46	5213.36
2790.79	5219.28
2792.12	5230.3
2793.44	5214.27
2794.77	5230.29
2796.1	5233.75
2797.43	5209.49
2798.76	5222.66
2800.09	5196.39
2801.42	5235.96
2802.74	5200.34
2804.07	5190.55
2805.4	5168.71
2806.73	5167.97
2808.05	5191.19
2809.38	5174.88
2810.71	5201.23
2812.03	5192.17
2813.36	5182
2814.68	5214.44
2816.01	5179.4
2817.33	5208.57
2818.66	5206.84
2819.98	5213.84
2821.31	5210.54
2822.63	5210.67
2823.96	5230.54
2825.28	5251.08
2826.6	5236.79
2827.93	5274.67
2829.25	5278.84
2830.57	5310.54
2831.9	5361.05
2833.22	5357.42
2834.54	5407.31
2835.86	5521.66
2837.19	5570.85
2838.51	5630.54
2839.83	5776.75
2841.15	5936.63
2842.47	6078.17
2843.79	6262.85
2845.11	6520.4
2846.43	6692.79
2847.75	6841.75
2849.07	6925.08
2850.39	6969.83
2851.71	6990.48
2853.03	6989.18
2854.35	6913.63
2855.66	6845.53
2856.98	6801.22
2858.3	6779.33
2859.62	6699.42
2860.94	6654.06
2862.25	6600.08
2863.57	6597.16
2864.89	6592.63
2866.2	6557.2
2867.52	6594.24
2868.84	6614.05
2870.15	6668.83
2871.47	6712.93
2872.78	6790.68
2874.1	6839.2
2875.41	6837.57
2876.73	6908.27
2878.04	6988.14
2879.36	7005.65
2880.67	7013.84
2881.98	7063.62
2883.3	7025.6
2884.61	7040.91
2885.92	7034.64
2887.24	7075.84
2888.55	7033.43
2889.86	7040.24
2891.18	7059.19
2892.49	7015.41
2893.8	7018.53
2895.11	6978.08
2896.42	7037.75
2897.73	7067.7
2899.04	7018.89
2900.35	7009.46
2901.67	7043.69
2902.97	6991.32
2904.29	7024.19
2905.59	6997.67
2906.9	6961.25
2908.21	6943.27
2909.52	6946.72
2910.83	6957.72
2912.14	6944.13
2913.45	6924.47
2914.76	6923.64
2916.06	6930.01
2917.37	6923.83
2918.68	6917.62
2919.99	6925.49
2921.29	6906.23
2922.6	6912.58
2923.91	6898.33
2925.21	6930.71
2926.52	6910.18
2927.82	6886.63
2929.13	6954.78
2930.44	6954.67
2931.74	6920.24
2933.05	6922.14
2934.35	6880.36
2935.65	6886.25
2936.96	6824.26
2938.26	6775.98
2939.57	6714.95
2940.87	6587.66
2942.17	6511.77
2943.48	6395.99
2944.78	6320.89
2946.08	6212.16
2947.38	6126.06
2948.69	6120.52
2949.99	6043.75
2951.29	6029.05
2952.59	6017.22
2953.89	5898.95
2955.19	5918.88
2956.49	5896.3
2957.8	5881.28
2959.1	5863.71
2960.4	5830.99
2961.7	5793.88
2962.99	5773.06
2964.29	5712.66
2965.59	5707.87
2966.89	5656.86
2968.19	5601.25
2969.49	5586.63
2970.79	5536.62
2972.09	5512.03
2973.38	5455.46
2974.68	5452.85
2975.98	5416.03
2977.28	5386.52
2978.57	5372.98
2979.87	5328.33
2981.17	5300.26
2982.46	5276.92
2983.76	5248.62
2985.05	5242.53
2986.35	5230.78
2987.65	5165.98
2988.94	5162.24
2990.24	5142.99
2991.53	5134.4
2992.82	5126.84
2994.12	5110.03
2995.41	5117.32
2996.71	5101.12
2998	5073.59
2999.29	5058.75
3000.59	5072.81
3001.88	5050.27
3003.17	5028.17
3004.47	5062.98
3005.76	5052.77
3007.05	5014.03
3008.34	5015.96
3009.63	5044.62
3010.92	4995.38
3012.21	4949.43
3013.5	4956.95
3014.8	4911.7
3016.09	4937.69
3017.38	4935.6
3018.67	4926.27
3019.96	4881.21
3021.25	4896.23
3022.54	4883.88
3023.82	4905.29
3025.11	4910.11
3026.4	4866.58
3027.69	4860.52
3028.98	4844.96
3030.27	4851.88
3031.55	4872.99
3032.84	4876.22
3034.13	4876.02
3035.42	4870.07
3036.7	4852.94
3037.99	4873.25
3039.28	4881.41
3040.56	4870.03
3041.85	4871.1
3043.13	4888.49
3044.42	4893.84
3045.7	4914.39
3046.99	4907.38
3048.27	4923.22
3049.56	4919.03
3050.84	4936.88
3052.13	4952.88
3053.41	4953.22
3054.69	4969.98
3055.98	4981.07
3057.26	4971.74
3058.54	4979.46
3059.83	4999.16
3061.11	4985.32
3062.39	5003.43
3063.67	5017.28
3064.95	5035.42
3066.24	5041.51
3067.52	5024.28
3068.8	5003.27
3070.08	5030.82
3071.36	5021.77
3072.64	5017.17
3073.92	5062.04
3075.2	5054.13
3076.48	5066.01
3077.76	5057.66
3079.04	5061.26
3080.32	5058.75
3081.6	5048.57
3082.88	5101.06
3084.16	5099.26
3085.44	5087.64
3086.71	5074.58
3087.99	5114.39
3089.27	5118.63
3090.55	5117.46
3091.82	5170.84
3093.1	5163.54
3094.38	5197.91
3095.65	5137.8
3096.93	5145.8
3098.21	5197.91
3099.48	5208.67
3100.76	5224.36
3102.03	5258.26
3103.31	5228.03
3104.58	5277.11
3105.86	5290.35
3107.13	5296.98
3108.41	5328.29
3109.68	5352.13
3110.96	5383.2
3112.23	5359.93
3113.5	5386.83
3114.78	5407.35
3116.05	5403.04
3117.32	5431.15
3118.59	5445.63
3119.87	5456.92
3121.14	5476.32
3122.41	5491.24
3123.68	5528.12
3124.95	5496.66
3126.23	5535.19
3127.5	5589.31
3128.77	5582.54
3130.04	5613.28
3131.31	5577.17
3132.58	5644.8
3133.85	5667.62
3135.12	5654.22
3136.39	5674.33
3137.66	5698.44
3138.93	5729.06
3140.2	5744.55
3141.46	5752.93
3142.73	5746.11
3144	5813.98
3145.27	5793.38
3146.54	5839.35
3147.8	5866.22
3149.07	5883.12
3150.34	5898.42
3151.6	5927.32
3152.87	5954.71
3154.14	5968.97
3155.4	5936.62
3156.67	5965.02
3157.94	6006.62
3159.2	6041.16
3160.47	6038.86
3161.73	5999.54
3163	6053.3
3164.26	6076.44
3165.53	6127.58
3166.79	6116.34
3168.05	6096.55
3169.32	6127.03
3170.58	6128.36
3171.84	6130.76
3173.11	6169.52
3174.37	6134.54
3175.63	6171.5
3176.9	6153.48
3178.16	6193.05
3179.42	6157.58
3180.68	6159.94
3181.94	6180.29
3183.21	6156.35
3184.47	6193.5
3185.73	6200.34
3186.99	6171.22
3188.25	6190.06
3189.51	6216.79
3190.77	6233.59
3192.03	6228.96
3193.29	6235.34
3194.55	6226.21
3195.81	6213.4
3197.07	6218.2
3198.33	6211.86
3199.58	6246.73
3200.84	6198.99
3202.1	6210.45
3203.36	6226.68
3204.62	6233.74
3205.87	6223.34
3207.13	6239.9
3208.39	6239.03
3209.65	6248.97
3210.9	6220.61
3212.16	6223.44
3213.41	6216.79
3214.67	6216.01
3215.93	6185.89
3217.18	6219.65
3218.44	6216.49
3219.69	6208.11
3220.95	6183.36
3222.2	6187.77
3223.46	6193.91
3224.71	6183.32
3225.97	6197.33
3227.22	6176.62
3228.47	6185.64
3229.73	6183.69
3230.98	6180.07
3232.23	6171.41
3233.48	6171.29
3234.74	6189.89
3235.99	6141.24
3237.24	6159.11
3238.49	6146.04
3239.75	6137.93
3241	6122.49
3242.25	6134.05
3243.5	6114.35
3244.75	6117.71
3246	6127.18
3247.25	6097.01
3248.5	6073.39
3249.75	6082.32
3251	6075.18
3252.25	6072.27
3253.5	6056.36
3254.75	6038.63
3256	6035.1
3257.25	6020.53
3258.49	6012.27
3259.74	5990.52
3260.99	6006.05
3262.24	5981.42
3263.49	5984.86
3264.73	5988.83
3265.98	5959.98
3267.23	5966.14
3268.47	5958.19
3269.72	5953.74
3270.97	5964.47
3272.21	5960.99
3273.46	5940.07
3274.7	5922.51
3275.95	5908.1
3277.2	5892.21
3278.44	5905.8
3279.69	5885.99
3280.93	5891.87
3282.17	5878.32
3283.42	5871.62
3284.66	5888.74
3285.91	5862.33
3287.15	5863.74
3288.39	5849.81
3289.64	5850.3
3290.88	5833.48
3292.12	5844.48
3292.31	5841.48
3293.56	5836.64
3294.8	5803.5
3296.05	5819.72
3297.3	5822.72
3298.55	5794.14
3299.79	5797.08
3301.04	5791.24
3302.29	5796.49
3303.54	5804.1
3304.78	5787.37
3306.03	5774.7
3307.27	5774.86
3308.52	5767.68
3309.76	5783.57
3311.01	5782.85
3312.26	5754.07
3313.5	5745.21
3314.75	5740.35
3315.99	5755.39
3317.23	5713.31
3318.48	5731.63
3319.72	5751.82
3320.97	5701.8
3322.21	5741.9
3323.45	5727.01
3324.7	5734.67
3325.94	5711.25
3327.18	5721.26
3328.42	5720.37
3329.67	5694.69
3330.91	5684.61
3332.15	5690.54
3333.39	5708.07
3334.63	5705.81
3335.87	5700.11
3337.12	5665.04
3338.36	5661.98
3339.6	5687.74
3340.84	5664.48
3342.08	5696.01
3343.32	5666.04
3344.56	5677.14
3345.8	5673.85
3347.04	5673.5
3348.27	5689.72
3349.51	5641.48
3350.75	5656.36
3351.99	5648.5
3353.23	5647.89
3354.47	5629.68
3355.7	5606.44
3356.94	5618.44
3358.18	5632.11
3359.42	5610.55
3360.65	5630.54
3361.89	5628.94
3363.13	5646.54
3364.36	5636.08
3365.6	5610.14
3366.83	5618.79
3368.07	5614.61
3369.31	5608.39
3370.54	5611.79
3371.78	5660.69
3373.01	5648.82
3374.25	5609.07
3375.48	5620.14
3376.71	5618.52
3377.95	5617.61
3379.18	5597.87
3380.42	5594.28
3381.65	5588.11
3382.88	5608.48
3384.12	5563.61
3385.35	5578.47
3386.58	5596.21
3387.81	5584.08
3389.04	5586.6
3390.28	5549.25
3391.51	5573.94
3392.74	5563.13
3393.97	5582.81
3395.2	5562.92
3396.43	5610.49
3397.67	5581.8
3398.9	5530.44
3400.13	5543.44
3401.36	5570.94
3402.58	5564.58
3403.82	5529.88
3405.05	5530.44
3406.27	5521.04
3407.5	5514.93
3408.73	5510.69
3409.96	5485.48
3411.19	5484.35
3412.42	5493.99
3413.64	5487.45
3414.87	5492.25
3416.1	5487.88
3417.33	5480.37
3418.55	5474.43
3419.78	5466.52
3421.01	5455.15
3422.23	5428.43
3423.46	5438.03
3424.69	5414.07
3425.91	5408.16
3427.14	5380.58
3428.36	5398.88
3429.59	5377.34
3430.81	5355.43
3432.04	5367.36
3433.26	5358.62
3434.49	5355.42
3435.71	5325.69
3436.94	5348.31
3438.16	5331.51
3439.39	5322.36
3440.61	5282.78
3441.83	5266.46
3443.05	5298.01
3444.28	5223.92
3445.5	5236.88
3446.72	5214.15
3447.95	5216.2
3449.17	5200.59
3450.39	5183.69
3451.61	5184.27
3452.83	5152.09
3454.05	5145.93
3455.27	5150.62
3456.5	5148.77
3457.71	5101.44
3458.94	5108.58
3460.16	5086.56
3461.38	5052.17
3462.59	5068.36
3463.81	5068.69
3465.03	5036.3
3466.25	5014.35
3467.47	5021.36
3468.69	4975.43
3469.91	4995.41
3471.13	4944.87
3472.35	4938.55
3473.56	4908.54
3474.78	4892.11
3476	4872.29
3477.22	4839.88
3478.43	4842.26
3479.65	4832.89
3480.87	4801.85
3482.08	4787.14
3483.3	4791.73
3484.52	4737.5
3485.73	4730.44
3486.95	4773.7
3488.16	4715.69
3489.38	4686.02
3490.59	4644.73
3491.81	4659.94
3493.02	4640.66
3494.24	4597.54
3495.45	4599.05
3496.67	4555.24
3497.88	4550.56
3499.09	4519.15
