#Acq. time (s)=	10
#Accumulations=	10
#Range (cm-¹)=	400...3500
#Windows=	3
#Auto scanning=	Off
#Autofocus=	Off
#AutoExposure=	Off
#Spike filter=	Multiple accum.
#Delay time (s)=	0
#Binning=	1
#Readout mode=	Signal
#DeNoise=	Off
#ICS correction=	On
#Dark correction=	Off
#Inst. Process=	Off
#Detector Gain=	Best Dynamic Range
#Detector ADC=	45 kHz       
#Detector temperature (°C)=	-60.1
#Instrument=	LabRAM HR Evol
#Detector=	Syncerity OE
#Objective=	x50_VIS_LWD
#Grating=	600 (500nm)
#ND Filter=	50%
#Laser=	532nm_Edge
#Hole=	199.981
#Range=	Visible
#E-Cal_Neon=	0
#StageXY=	75x50mm Scan+
#StageZ=	Z motor
#X (µm)=	0
#Y (µm)=	0
#Z (µm)=	425.1
#Spectral res.(cm-¹)=	12.8
#Full time(mm:ss)=	5:19
#AC=	Calibrated 2025-07-01 10:31
#Project=	
#Sample=	
#Site=	
#Title=	D_1
#Remark=	
#Date=	01.07.2025 15:23 (India Standard Time)
#Acquired=	01.07.2025 15:23:45 (India Standard Time)
#AxisType[0]=Intens
#AxisUnit[0]=Cnt
#AxisType[1]=Spectr
#AxisUnit[1]=1/cm
400.083	17276
401.858	17115.8
403.63	17109.3
405.405	17147.8
407.176	17129.5
408.949	17170.8
410.72	17140.7
412.493	17188
414.263	17110.8
416.033	17159
417.805	17189.5
419.574	17164
421.345	17117
423.114	17157.1
424.884	17116.9
426.652	17181.8
428.421	17110.3
430.188	17156
431.955	17089.7
433.724	17153.6
435.49	17174
437.258	17065.5
439.023	17081.9
440.788	17039.8
442.555	17049.2
444.32	17067
446.084	17008.1
447.85	16982.7
449.613	16974.8
451.376	16986.7
453.141	17007.2
454.904	16948
456.666	16920.2
458.429	16918.7
460.191	16948.9
461.952	16908
463.715	16882.1
465.475	16928.8
467.235	16923.1
468.995	16892.6
470.756	16909.9
472.515	16829.9
474.274	16799
476.032	16849
477.793	16896.3
479.55	16830.8
481.308	16784.4
483.065	16847
484.823	16809.3
486.58	16814.9
488.336	16802.5
490.091	16823.5
491.847	16844.2
493.604	16744.2
495.358	16725.5
497.113	16790.4
498.867	16841.9
500.62	16843.9
502.374	16818.2
504.127	16841.3
505.881	16816.5
507.634	16867.5
509.386	16815.8
511.137	16874
512.888	16855.6
514.639	16892.1
516.39	16775.4
518.14	16835.2
519.89	16735
521.642	16754.7
523.391	16721.3
525.14	16676.6
526.889	16734.7
528.637	16670.7
530.385	16705
532.133	16661.4
533.88	16605.2
535.627	16650.9
537.373	16621.1
539.12	16627.1
540.866	16563.8
542.611	16558.4
544.357	16561.8
546.101	16620
547.846	16577
549.59	16491.9
551.334	16545.4
553.078	16477
554.821	16490.7
556.564	16516.6
558.307	16435.9
560.049	16482.4
561.789	16452.1
563.53	16470.7
565.272	16479.8
567.013	16485.3
568.753	16506
570.494	16481.4
572.233	16477.2
573.973	16514.6
575.712	16537.7
577.449	16476.9
579.188	16476.7
580.926	16454.4
582.664	16501
584.402	16542.5
586.139	16481.7
587.876	16456.1
589.611	16490.7
591.347	16498.4
593.083	16447.1
594.818	16523.7
596.554	16534.9
598.287	16502.2
600.021	16477.8
601.756	16463.4
603.49	16471.9
605.221	16486.1
606.955	16473.2
608.688	16418.3
610.42	16418
612.15	16378.6
613.882	16399.7
615.614	16377.8
617.345	16410.3
619.074	16345.2
620.805	16348.9
622.535	16339.3
624.263	16222.6
625.993	16246.9
627.722	16202.9
629.45	16243.7
631.178	16142.9
632.907	16215.5
634.633	16246.6
636.36	16258.2
638.088	16240
639.813	16237.5
641.539	16251.8
643.264	16188.2
644.99	16165.3
646.716	16185.2
648.439	16120.1
650.164	16138.3
651.887	16105.4
653.611	16177.2
655.335	16092.9
657.057	16102.4
658.781	16072.1
660.502	16099.1
662.225	16126.2
663.945	16058.6
665.667	16072.4
667.387	16067.2
669.108	16098.6
670.828	16046.2
672.548	16033.2
674.267	16004.4
675.987	15996.5
677.705	15996.5
679.424	15986.2
681.142	15978.5
682.86	16021.6
684.577	16050.2
686.293	15992.8
688.011	16002.6
689.727	15925.8
691.444	16098.3
693.159	15989
694.875	16015.4
696.59	16029.6
698.304	16060.6
700.019	16068.3
701.733	16015.8
703.448	16032.7
705.16	16022
706.872	16015.9
708.586	15999.7
710.298	15955.1
712.01	15913.6
713.723	15926.5
715.433	15954.1
717.144	15966.4
718.856	16001.4
720.565	15995.3
722.275	15996
723.984	15983.9
725.695	15988.9
727.403	15917.8
729.111	15922.9
730.821	15927.3
732.528	15922.6
734.235	15953.3
735.942	15927.4
737.651	15919
739.357	15885.8
741.063	15872.7
742.768	15859.6
744.474	15884.9
746.18	15877.5
747.885	15901.7
749.589	15914
751.293	15931.8
752.997	15895.7
754.702	15921.1
756.405	15929.7
758.108	15931.3
759.81	16003
761.512	15943.8
763.214	15882.8
764.915	15905.5
766.618	15954.7
768.319	15955.3
770.019	15937.3
771.719	15902.8
773.419	15915.2
775.118	15983.8
776.817	15950.4
778.516	15904.1
780.214	15892.4
781.913	15888.6
783.61	15915.9
785.308	15917.5
787.005	15914.3
788.702	15897.2
790.398	15882.9
792.095	15868.5
793.791	15803.1
795.486	15846.7
797.181	15846.8
798.876	15835.3
800.571	15916.2
802.265	15908
803.959	15894.4
805.653	15871.4
807.346	15885.4
809.039	15885.8
810.732	15895.3
812.424	15948.9
814.116	15919.3
815.808	15909.5
817.5	15949.6
819.191	15945.3
820.881	15992.8
822.572	16008.2
824.26	16044.5
825.95	16155.7
827.639	16076.7
829.329	16129.4
831.018	16108.8
832.706	16158.7
834.394	16072.1
836.08	16171.1
837.768	16142.4
839.455	16171.5
841.142	16304
842.829	16230.1
844.513	16294.6
846.199	16280.7
847.885	16365.6
849.57	16276.1
851.255	16356.1
852.938	16348.6
854.623	16307.9
856.307	16363.2
857.991	16385.3
859.672	16387.8
861.355	16399.4
863.038	16422.7
864.719	16415.9
866.401	16384
868.083	16431.1
869.765	16351.2
871.444	16378.9
873.125	16425.4
874.806	16416.2
876.484	16418.2
878.164	16304.3
879.844	16295.3
881.521	16273.4
883.2	16280.2
884.877	16260
886.555	16290.2
888.234	16239.7
889.909	16239.5
891.587	16127
893.262	16115.6
894.939	15999.8
896.616	15971.6
898.29	15925.9
899.966	15866.3
901.64	15861.2
903.315	15853.1
904.988	15863.7
906.663	15745.9
908.335	15790.6
910.009	15759.4
911.683	15740
913.354	15787.7
915.027	15796.2
916.698	15760.7
918.369	15784.4
920.041	15754.6
921.711	15667.4
923.383	15636.9
925.052	15646.9
926.723	15604.9
928.391	15579.7
930.062	15575.8
931.73	15544.9
933.399	15559.5
935.067	15563.4
936.734	15576.9
938.403	15523.9
940.069	15590.9
941.737	15638.5
943.403	15626
945.069	15631.9
946.736	15653.2
948.401	15614.8
950.065	15652.2
951.732	15684.2
953.396	15643.1
955.059	15681.8
956.725	15630.2
958.388	15691
960.051	15613.4
961.715	15657.2
963.377	15657.3
965.039	15641.2
966.7	15597
968.364	15579.9
970.025	15548
971.685	15495.9
973.345	15528
975.007	15514.8
976.667	15490.5
978.326	15518.4
979.985	15484.1
981.646	15534.1
983.304	15576.8
984.963	15548.9
986.62	15615.3
988.278	15599
989.935	15762.5
991.594	15739.5
993.25	15865
994.907	16021.3
996.563	16210.5
998.218	16405
999.874	16484.8
1001.53	16538.9
1003.19	16375
1004.84	16250.2
1006.49	16119.7
1008.15	15985.5
1009.8	15935
1011.45	15843
1013.11	15715.2
1014.76	15794.4
1016.41	15740.9
1018.06	15727.5
1019.72	15696.1
1021.37	15741.9
1023.02	15645.5
1024.67	15626.2
1026.32	15556
1027.97	15589.5
1029.62	15586.8
1031.27	15526.9
1032.92	15541.3
1034.57	15511.6
1036.22	15503.6
1037.86	15515.3
1039.51	15542.3
1041.16	15478.5
1042.81	15507.5
1044.45	15504.6
1046.1	15529
1047.75	15543.7
1049.39	15522.6
1051.04	15639.3
1052.68	15686.7
1054.33	15819.7
1055.97	15863.9
1057.62	15956.6
1059.26	15964.1
1060.91	16074.7
1062.55	16029.2
1064.19	15910.2
1065.83	15854.8
1067.48	15847.6
1069.12	15858.2
1070.76	15920
1072.4	15974.7
1074.04	15975.7
1075.68	16033.2
1077.32	16030.1
1078.97	16016.8
1080.61	15942.9
1082.24	15913.9
1083.88	15879.9
1085.52	15851.6
1087.16	15772
1088.8	15755.1
1090.44	15681
1092.08	15588.3
1093.71	15534.8
1095.35	15487
1096.99	15417.8
1098.62	15316.8
1100.26	15325.8
1101.9	15287.7
1103.53	15268.5
1105.17	15198.8
1106.8	15274.4
1108.44	15308.9
1110.07	15348.5
1111.7	15400.1
1113.34	15499.2
1114.97	15522.5
1116.6	15574.2
1118.23	15590.3
1119.87	15698.1
1121.5	15636
1123.13	15669
1124.76	15647.7
1126.39	15605.8
1128.03	15504.1
1129.65	15357.8
1131.29	15276.7
1132.91	15227.2
1134.54	15285.6
1136.17	15299.9
1137.8	15338.4
1139.43	15470.6
1141.06	15536.7
1142.69	15749.9
1144.31	15931.7
1145.94	16271.8
1147.57	16590.9
1149.19	17143.6
1150.82	17514.6
1152.45	17774.1
1154.07	17790.3
1155.7	17513.6
1157.32	17031.9
1158.95	16470.9
1160.57	15984.5
1162.2	15627.3
1163.82	15454.5
1165.44	15222.3
1167.07	15129.6
1168.69	15116.5
1170.31	15096.5
1171.94	15066.7
1173.56	14972.6
1175.18	14951
1176.8	14943.3
1178.42	14977.1
1180.04	14936.3
1181.66	14992.7
1183.28	14993.6
1184.9	15029.1
1186.52	15042.6
1188.14	15073.5
1189.76	15018.8
1191.38	14958.4
1192.99	14884.5
1194.61	14921.7
1196.23	14807.3
1197.85	14772.1
1199.46	14662.8
1201.08	14681.6
1202.7	14709.1
1204.31	14672.3
1205.93	14626.7
1207.54	14629.3
1209.16	14620.3
1210.78	14649.8
1212.39	14611.1
1214	14523.6
1215.62	14437
1217.23	14378.4
1218.84	14349.7
1220.46	14396.1
1222.07	14363.2
1223.68	14412.5
1225.29	14419.2
1226.91	14384.6
1228.52	14383.1
1230.13	14466.1
1231.74	14417.4
1233.35	14450.1
1234.96	14557.6
1236.57	14434.9
1238.18	14599.5
1239.79	14549.9
1241.4	14611.5
1243	14669.9
1244.61	14665.1
1246.22	14746.8
1247.83	14713.3
1249.43	14769.7
1251.04	14795.3
1252.65	14813.5
1254.25	14855.6
1255.86	14882.5
1257.47	14893.8
1259.07	14937.6
1260.68	14906.1
1262.28	14989.8
1263.89	15011.1
1265.49	14941.2
1267.09	14880.4
1268.7	14941.1
1270.3	14835.2
1271.9	14844.1
1273.51	14761.4
1275.11	14741.4
1276.71	14746.8
1278.31	14781.9
1279.91	14793.8
1281.52	14790.5
1283.12	14785.9
1284.72	14878.8
1286.32	14892
1287.92	15067.6
1289.52	15243.9
1291.12	15394.4
1292.72	15595.7
1294.31	15714.9
1295.91	15716.1
1297.51	15661.9
1299.11	15701.1
1300.71	15639.4
1302.3	15551.9
1303.9	15468.5
1305.5	15317.7
1307.09	15163.9
1308.69	15105.1
1310.28	15024.1
1311.88	14904.2
1313.47	14737.3
1315.07	14628.2
1316.66	14540.6
1318.26	14548.2
1319.85	14396.8
1321.44	14398.2
1323.04	14343.7
1324.63	14342.8
1326.22	14307.1
1327.82	14241.7
1329.41	14189.7
1331	14224.6
1332.59	14159.9
1334.18	14125.1
1335.77	14180.2
1337.36	14143.3
1338.95	14186.3
1340.54	14148.9
1342.13	14142.4
1343.72	14059.1
1345.31	14059.4
1346.9	14073.4
1348.49	14077.1
1350.07	14031.1
1351.66	14032.2
1353.25	13986.4
1354.84	13999.2
1356.42	13964.5
1358.01	13891.2
1359.6	13889.1
1361.18	13905.9
1362.77	13879
1364.35	13877.3
1365.94	13890.8
1367.52	13798
1369.11	13809.9
1370.69	13783.3
1372.28	13791.5
1373.86	13768.8
1375.44	13652.9
1377.02	13639.9
1378.61	13648.1
1380.19	13605.7
1381.77	13628.1
1383.35	13529.5
1384.93	13568.1
1386.52	13593.2
1388.1	13642.7
1389.68	13631.6
1391.26	13625.1
1392.84	13641.8
1394.41	13598.8
1396	13558
1397.57	13537
1399.15	13578.3
1400.73	13562.8
1402.31	13577.9
1403.89	13576.6
1405.46	13606.2
1407.04	13661
1408.62	13685.9
1410.19	13732.4
1411.77	13808.1
1413.35	13912.3
1414.92	13909.8
1416.5	13966.5
1418.07	14043.6
1419.65	14097.3
1421.22	14098
1422.8	14179.3
1424.37	14402.2
1425.94	14622.1
1427.52	14937.4
1429.09	15189.7
1430.66	15624.4
1432.23	15942.2
1433.8	16214.9
1435.38	16357.3
1436.95	16412.8
1438.52	16376.5
1440.09	16265.5
1441.66	16170.2
1443.23	15974
1444.8	15936.6
1446.37	15887.6
1447.94	15761
1449.51	15739.1
1451.08	15587
1452.65	15539.3
1454.22	15435.2
1455.78	15332.8
1457.35	15198.2
1458.92	15064
1460.48	14941.4
1462.05	14770.3
1463.62	14647.1
1465.18	14500.9
1466.75	14256.5
1468.31	14160
1469.88	14000.5
1471.44	13815.4
1473.01	13675.2
1474.57	13615.3
1476.14	13555.8
1477.7	13443.9
1479.26	13406.2
1480.83	13387.8
1482.39	13297.1
1483.95	13331.5
1485.51	13297.8
1487.08	13299.6
1488.64	13301.1
1490.2	13306.3
1491.76	13313.5
1493.32	13402.6
1494.88	13461.8
1496.44	13475.8
1498	13557.2
1499.56	13657.2
1501.12	13688.8
1502.68	13828.1
1504.24	14000.7
1505.8	14161.5
1507.35	14420.3
1508.91	14704.7
1510.47	14967.3
1512.03	15241.9
1513.58	15498
1515.14	15722.7
1516.69	15881.1
1518.25	15956
1519.81	15936
1521.36	15841
1522.92	15653.8
1524.47	15257.4
1526.03	14928.6
1527.58	14575.2
1529.13	14197.1
1530.69	13830.7
1532.24	13541.2
1533.79	13450.9
1535.35	13281.6
1536.9	13158.6
1538.45	13059.6
1540	13001
1541.55	12977.9
1543.11	12925.5
1544.66	12875.2
1546.21	12885.7
1547.76	12786.3
1549.31	12817.3
1550.86	12788.6
1552.41	12837.7
1553.96	12745.7
1555.5	12722.3
1557.05	12674.1
1558.6	12688.1
1560.15	12647.5
1561.7	12671.6
1563.24	12691.4
1564.79	12670.6
1566.34	12653.5
1567.88	12717.4
1569.43	12658.8
1570.98	12693.2
1572.52	12670.6
1574.07	12699.9
1575.61	12647.5
1577.16	12641.6
1578.7	12667.6
1580.25	12698.9
1581.79	12700
1583.34	12661.7
1584.88	12716.7
1586.42	12670.5
1587.96	12664.1
1589.51	12663.8
1591.05	12702.4
1592.59	12672.7
1594.13	12706.1
1595.67	12636
1597.21	12714.6
1598.76	12627.7
1600.3	12698.4
1601.83	12644.9
1603.37	12695.8
1604.92	12686.4
1606.45	12647.1
1607.99	12701.1
1609.53	12738.5
1611.07	12727.4
1612.61	12629.1
1614.15	12583.6
1615.68	12593.5
1617.22	12576.7
1618.76	12586.3
1620.29	12559.3
1621.83	12598.3
1623.37	12538
1624.9	12606.5
1626.44	12596.5
1627.97	12627.8
1629.51	12688.6
1631.04	12655.2
1632.58	12727.7
1634.11	12734.2
1635.64	12708.2
1637.18	12726.7
1638.71	12792.1
1640.24	12850.8
1641.78	12943.4
1643.31	13071.5
1644.84	13226.1
1646.37	13348.4
1647.9	13528.9
1649.44	13694.4
1650.97	13643.3
1652.5	13641.7
1654.03	13576.8
1655.56	13337.7
1657.09	13187.6
1658.62	13073.4
1660.14	12966.9
1661.67	12877.3
1663.2	12784.1
1664.73	12769.3
1666.26	12657.5
1667.79	12678.5
1669.31	12611.5
1670.84	12603.9
1672.37	12477.3
1673.89	12429.3
1675.42	12425.7
1676.95	12310
1678.47	12303.7
1680	12263.3
1681.52	12185.8
1683.05	12187.4
1684.57	12093.6
1686.1	12101.4
1687.62	12026.7
1689.14	12097.2
1690.67	12037.5
1692.19	11989.2
1693.71	12015.8
1695.23	11941.1
1696.76	11931.5
1698.28	11874.1
1699.8	11903.4
1701.32	11824.2
1702.84	11788.1
1704.36	11828.6
1705.88	11792.5
1707.4	11734.9
1708.92	11750.5
1710.44	11765.5
1711.96	11770.1
1713.48	11694.2
1715	11704.9
1716.52	11710.8
1718.04	11744.5
1719.56	11682.5
1721.07	11722.2
1722.59	11743.8
1724.11	11786.4
1725.63	11732.2
1727.14	11829
1728.66	11844.4
1730.17	11797.1
1731.69	11853.8
1733.2	11954.9
1734.72	11972.4
1736.23	12036.9
1737.75	12047.5
1739.26	12083.8
1740.78	12099.9
1742.29	12095.5
1743.8	12034.2
1745.32	11989
1746.83	12025
1748.34	11999.7
1749.86	11942
1751.37	11842.6
1752.88	11771
1754.39	11676.4
1755.9	11623.8
1757.41	11615
1758.92	11526
1760.43	11466.2
1761.94	11451.4
1763.45	11442.9
1764.96	11392.4
1766.47	11416.8
1767.98	11419.1
1769.49	11424
1771	11383.4
1772.5	11391.7
1774.01	11367.3
1775.52	11333.1
1777.03	11356.4
1778.53	11351.3
1780.04	11297.6
1781.55	11361.5
1783.05	11306.4
1784.56	11261.3
1786.06	11276.1
1787.57	11317.5
1789.07	11329.1
1790.58	11312.3
1792.08	11284.5
1793.59	11260.1
1795.09	11266.8
1796.59	11311.5
1798.1	11258.8
1799.6	11229.6
1801.1	11216.3
1802.61	11191.5
1804.11	11233.8
1805.61	11209.4
1807.11	11128.3
1808.61	11156.2
1810.11	11182.2
1811.61	11204.5
1813.11	11172.3
1814.61	11111.7
1816.11	11167.3
1817.61	11164.2
1819.11	11077.4
1820.61	11088
1822.11	11078.6
1823.61	11079.7
1825.11	11106
1826.6	11172.5
1828.1	11123.4
1829.6	11082.8
1831.1	11076.2
1832.59	11098.4
1834.09	11038.4
1835.59	11074.1
1837.08	11053.9
1838.58	11064.4
1840.07	11066.3
1841.57	11069
1843.06	11060.6
1844.56	11049.1
1846.05	11058.5
1847.54	11064.4
1849.04	10992.5
1850.53	11017.2
1852.02	11028.3
1853.52	10972.9
1855.01	10986.9
1856.5	10945.2
1857.99	10988.9
1859.49	10967.5
1860.98	10905.5
1862.47	10908.1
1863.96	10969.3
1865.45	10965.9
1866.94	10920.9
1868.43	10925.6
1869.92	10966.1
1871.41	10918.8
1872.9	10906.6
1874.39	10880.1
1875.88	10908.3
1877.37	10934.5
1878.85	10891.6
1880.34	10887.5
1881.83	10873.3
1883.32	10882.8
1884.8	10877.8
1886.29	10827.2
1887.78	10796.3
1889.26	10845.6
1890.75	10790.1
1892.23	10822.6
1893.72	10815.1
1895.21	10804.6
1896.69	10748.9
1898.17	10788.5
1899.66	10741
1901.14	10735.6
1902.63	10697.6
1904.11	10666
1905.59	10654.2
1907.08	10566.1
1908.56	10589.3
1910.04	10605.3
1911.52	10577.6
1913	10534.9
1914.49	10457.2
1915.97	10429.1
1917.45	10430.1
1918.93	10375.9
1920.41	10346.5
1921.89	10369.5
1923.37	10331.6
1924.85	10355
1926.33	10302.8
1927.81	10292.8
1929.29	10269.1
1930.76	10200.8
1932.24	10200.6
1933.72	10196.1
1935.2	10126.3
1936.67	10148.3
1938.15	10100.3
1939.63	10083.6
1941.1	10036.8
1942.58	10049.1
1944.06	9999.41
1945.53	10021.4
1947.01	9954.13
1948.48	9941.06
1949.96	9913.68
1951.43	9880.19
1952.91	9861.85
1954.38	9815.06
1955.86	9781.01
1957.33	9766.36
1958.8	9746.4
1960.27	9701.73
1961.75	9726.94
1963.22	9684.55
1964.69	9688.79
1966.16	9636.45
1967.64	9637.44
1969.11	9627.21
1970.58	9618.99
1972.05	9568.43
1973.52	9554.14
1974.99	9543.9
1976.46	9528.65
1977.93	9521.56
1979.4	9496.99
1980.87	9454.44
1982.34	9425.31
1983.81	9416.48
1985.27	9407.07
1986.74	9386
1988.21	9357.56
1989.68	9351.7
1991.14	9352.98
1992.61	9308.38
1994.08	9269.98
1995.55	9239.84
1997.01	9232.59
1998.48	9207.79
1999.94	9165.8
2001.41	9145.2
2002.87	9156.56
2004.34	9137.54
2005.8	9105.53
2007.27	9098.13
2008.73	9095.1
2010.19	9077.75
2011.66	9051.2
2013.12	9066.02
2014.58	9034.89
2016.05	9010.2
2017.51	8995.01
2018.97	8974.95
2020.43	8969.18
2021.89	8925.68
2023.36	8920.43
2024.82	8896.61
2026.28	8874.06
2027.74	8861.23
2029.2	8852.85
2030.66	8840.42
2032.12	8808.87
2033.58	8799.99
2035.04	8787.76
2036.49	8794.29
2037.95	8777.34
2039.41	8763.16
2040.87	8747.78
2042.33	8725.83
2043.78	8712.2
2045.24	8693.21
2045.76	8681.79
2047.22	8642.78
2048.69	8713.95
2050.15	8724.55
2051.61	8675.25
2053.07	8662.3
2054.54	8664.94
2056	8665.29
2057.46	8670.79
2058.92	8652.67
2060.38	8669.18
2061.84	8623.63
2063.3	8594.45
2064.76	8634.69
2066.22	8623.43
2067.68	8631.97
2069.14	8583.45
2070.6	8624.6
2072.06	8635.54
2073.52	8577.9
2074.98	8594.54
2076.44	8601.63
2077.89	8550.92
2079.35	8586.17
2080.81	8579.44
2082.27	8592.58
2083.72	8586.4
2085.18	8562.93
2086.63	8562.92
2088.09	8566.68
2089.55	8539.55
2091	8555.72
2092.46	8582.2
2093.91	8528.76
2095.37	8525.28
2096.82	8498.1
2098.28	8508.51
2099.73	8515.54
2101.18	8519.37
2102.64	8502.39
2104.09	8530.43
2105.54	8491.54
2106.99	8486.58
2108.45	8486.05
2109.9	8506.16
2111.35	8486.1
2112.8	8448.4
2114.25	8442.38
2115.71	8473.1
2117.16	8465.03
2118.61	8460.53
2120.06	8444.67
2121.51	8470.95
2122.96	8434.57
2124.4	8440.08
2125.85	8456.87
2127.3	8415.64
2128.75	8436.08
2130.2	8390.42
2131.65	8483.03
2133.09	8444.73
2134.54	8461.04
2135.99	8430.55
2137.44	8410.58
2138.88	8399.2
2140.33	8394.62
2141.78	8411.41
2143.22	8440.31
2144.67	8407.46
2146.11	8375.71
2147.56	8384.48
2149	8381.9
2150.45	8401.03
2151.89	8423.4
2153.34	8388.59
2154.78	8372.57
2156.22	8396.59
2157.67	8352.51
2159.11	8395.34
2160.55	8332.76
2162	8362.08
2163.44	8376.07
2164.88	8413.18
2166.32	8377.4
2167.76	8356.17
2169.2	8382.3
2170.64	8308.82
2172.09	8412.43
2173.53	8362.31
2174.97	8387.98
2176.41	8365.9
2177.85	8317.03
2179.29	8326.75
2180.72	8325.45
2182.16	8302.42
2183.6	8297.73
2185.04	8314.12
2186.48	8290.65
2187.92	8257.42
2189.35	8291.81
2190.79	8292.77
2192.23	8287.82
2193.66	8307.24
2195.1	8321.81
2196.54	8255.21
2197.97	8274.15
2199.41	8266.92
2200.84	8267.67
2202.28	8266.55
2203.71	8258.95
2205.15	8255.76
2206.58	8235.45
2208.02	8226.45
2209.45	8246.25
2210.88	8169.2
2212.32	8230
2213.75	8207.18
2215.18	8159.77
2216.62	8172.57
2218.05	8166.25
2219.48	8152.26
2220.91	8133.48
2222.34	8173.35
2223.78	8141.72
2225.21	8140.44
2226.64	8146.27
2228.07	8146.08
2229.5	8134.85
2230.93	8080.22
2232.36	8129.19
2233.79	8097.84
2235.22	8083.22
2236.65	8112.38
2238.07	8106.23
2239.5	8075.27
2240.93	8067.04
2242.36	8073.85
2243.79	8076.02
2245.21	8057.77
2246.64	8033.59
2248.07	8018.25
2249.49	8011.1
2250.92	8020.49
2252.35	8027.09
2253.77	8009.15
2255.2	7972.99
2256.62	8002.78
2258.05	8000.92
2259.47	7983.24
2260.9	7952.08
2262.32	7906.1
2263.75	7912.37
2265.17	7930.81
2266.59	7914.21
2268.02	7905.07
2269.44	7914.38
2270.86	7879.38
2272.29	7895.13
2273.71	7881.17
2275.13	7856.71
2276.55	7873.61
2277.97	7844.13
2279.39	7887.22
2280.81	7863.4
2282.24	7843.68
2283.66	7845.25
2285.08	7837.78
2286.5	7817.77
2287.92	7809.76
2289.34	7798.05
2290.75	7814.22
2292.17	7758.55
2293.59	7772.93
2295.01	7787.43
2296.43	7788.81
2297.85	7768.47
2299.26	7786.77
2300.68	7780.81
2302.1	7795.98
2303.51	7740.55
2304.93	7780.83
2306.35	7778.68
2307.76	7741.05
2309.18	7691.62
2310.6	7720.22
2312.01	7730.85
2313.43	7744.71
2314.84	7736.59
2316.25	7666.53
2317.67	7645.68
2319.08	7678.21
2320.5	7702.78
2321.91	7719.75
2323.32	7763.55
2324.74	7841.1
2326.15	7911
2327.56	7979.14
2328.98	7848.73
2330.39	7680.51
2331.8	7591.33
2333.21	7581.68
2334.62	7579.57
2336.03	7530.25
2337.44	7585.73
2338.85	7591.54
2340.26	7576.3
2341.67	7545.6
2343.08	7526.13
2344.49	7536.77
2345.9	7547.24
2347.31	7517.7
2348.72	7519.4
2350.13	7489.36
2351.54	7489.09
2352.94	7501.99
2354.35	7497.35
2355.76	7473.69
2357.17	7463.54
2358.57	7444.9
2359.98	7423.92
2361.39	7477.91
2362.79	7492.61
2364.2	7409.72
2365.6	7428.02
2367.01	7420.11
2368.41	7417.62
2369.82	7376.26
2371.22	7424.34
2372.63	7415.73
2374.03	7365.94
2375.44	7388.1
2376.84	7422.81
2378.24	7407.17
2379.65	7377.02
2381.05	7398.93
2382.45	7343.62
2383.85	7367.06
2385.26	7328.57
2386.66	7343.23
2388.06	7358.96
2389.46	7362.57
2390.86	7337.63
2392.26	7359.61
2393.66	7317.7
2395.06	7327.79
2396.46	7326.28
2397.86	7339.62
2399.26	7306.39
2400.66	7314.6
2402.06	7297.63
2403.46	7290.34
2404.86	7289.18
2406.26	7311.56
2407.66	7237.02
2409.05	7276.57
2410.45	7304.25
2411.85	7293.28
2413.24	7271.69
2414.64	7274.84
2416.04	7261.99
2417.43	7258.12
2418.83	7269.04
2420.23	7272.21
2421.62	7235.29
2423.02	7254.84
2424.41	7208.19
2425.81	7232.89
2427.2	7207.48
2428.6	7228.55
2429.99	7171.23
2431.38	7213.36
2432.78	7208.93
2434.17	7186.03
2435.56	7210.82
2436.96	7161.25
2438.35	7161.46
2439.74	7153.04
2441.13	7147.31
2442.53	7159.71
2443.92	7142.21
2445.31	7141.36
2446.7	7185.5
2448.09	7178.51
2449.48	7170.43
2450.87	7118.59
2452.26	7133.97
2453.65	7117.75
2455.04	7136.24
2456.43	7136.42
2457.82	7086.63
2459.21	7118.93
2460.6	7118.53
2461.98	7081.12
2463.37	7115.35
2464.76	7081.03
2466.15	7069.97
2467.53	7069.37
2468.92	7117.29
2470.31	7050.06
2471.7	7048.67
2473.08	7083.08
2474.47	7034.28
2475.85	7076.69
2477.24	7052.22
2478.63	7045.28
2480.01	7023.75
2481.39	7069.3
2482.78	7038.95
2484.16	7032.26
2485.55	6994.64
2486.93	7017.35
2488.32	7035.98
2489.7	7016.82
2491.08	7016.66
2492.46	6996.63
2493.85	6964.02
2495.23	6996
2496.61	7008
2497.99	6993.72
2499.38	6993.52
2500.76	6976.95
2502.14	6950.93
2503.52	6926.75
2504.9	6946.1
2506.28	6967.91
2507.66	6941.78
2509.04	6962.41
2510.42	6942.52
2511.8	6940.93
2513.18	6914.2
2514.56	6923.71
2515.94	6909.21
2517.31	6935.77
2518.69	6915.12
2520.07	6902.88
2521.45	6941.8
2522.82	6913.8
2524.2	6919.39
2525.58	6896.96
2526.96	6905.26
2528.33	6907.16
2529.71	6877.23
2531.09	6889.85
2532.46	6883.85
2533.84	6873.99
2535.21	6879.27
2536.59	6878.93
2537.96	6838.19
2539.34	6854.56
2540.71	6888.86
2542.08	6869.34
2543.46	6832.44
2544.83	6841.65
2546.2	6852.87
2547.58	6835.89
2548.95	6832.39
2550.32	6838.93
2551.7	6816.27
2553.07	6811.93
2554.44	6793.79
2555.81	6786.51
2557.18	6823.5
2558.55	6801.26
2559.92	6801.67
2561.29	6766.28
2562.66	6786.5
2564.03	6794.4
2565.4	6783.64
2566.77	6771.72
2568.14	6785.89
2569.51	6777.46
2570.88	6794.74
2572.25	6774.55
2573.62	6783.09
2574.99	6771.21
2576.35	6777.87
2577.72	6772.58
2579.09	6774.89
2580.46	6810.29
2581.82	6787.62
2583.19	6754.63
2584.56	6740.32
2585.92	6802.86
2587.29	6747.99
2588.65	6741.55
2590.02	6755.22
2591.38	6813.59
2592.75	6768.33
2594.11	6738.46
2595.48	6786.67
2596.84	6767.38
2598.21	6776.48
2599.57	6778.01
2600.93	6755.08
2602.3	6749.29
2603.66	6740.99
2605.02	6742.85
2606.39	6758.2
2607.75	6784.65
2609.11	6740.03
2610.47	6765.38
2611.83	6711.78
2613.19	6749.77
2614.56	6736.94
2615.92	6717.24
2617.28	6711.21
2618.64	6685.73
2620	6687.13
2621.36	6705.69
2622.72	6733.73
2624.08	6725.38
2625.44	6720.66
2626.8	6731.56
2628.15	6742.19
2629.51	6709.11
2630.87	6675.95
2632.23	6699.12
2633.59	6704.88
2634.94	6721.23
2636.3	6685.77
2637.66	6721.9
2639.01	6678.76
2640.37	6720.13
2641.73	6680.52
2643.08	6691.86
2644.44	6697.1
2645.79	6699.63
2647.15	6706.16
2648.5	6706.93
2649.86	6735.51
2651.21	6707.68
2652.57	6702.74
2653.92	6695.05
2655.28	6701.09
2656.63	6706.34
2657.98	6697.14
2659.33	6707.36
2660.69	6715.43
2662.04	6727.63
2663.39	6746.78
2664.75	6709.48
2666.1	6715.99
2667.45	6706.27
2668.8	6702.21
2670.15	6733.15
2671.5	6717.21
2672.85	6735.79
2674.2	6702.3
2675.55	6709.4
2676.9	6716.42
2678.25	6683.44
2679.6	6695.75
2680.95	6641.98
2682.3	6653.81
2683.65	6706.06
2685	6655.94
2686.35	6677.59
2687.7	6702.3
2689.04	6666.5
2690.39	6638.57
2691.74	6682.54
2693.09	6617.39
2694.43	6651.13
2695.78	6668.24
2697.13	6683.13
2698.47	6650.72
2699.82	6657
2701.16	6664.36
2702.51	6653.74
2703.85	6735.75
2705.2	6717.6
2706.54	6722.43
2707.89	6701.29
2709.23	6746.37
2710.58	6743.6
2711.92	6720.65
2713.26	6730.96
2714.61	6760.89
2715.95	6744.54
2717.29	6748.07
2718.64	6720.4
2719.98	6757.48
2721.32	6728.82
2722.66	6762.36
2724	6729.66
2725.35	6692.16
2726.69	6729.41
2728.03	6727.49
2729.37	6714.89
2730.71	6678.98
2732.05	6679.47
2733.39	6669.94
2734.73	6631.37
2736.07	6634.28
2737.41	6651.53
2738.75	6611.38
2740.09	6590.79
2741.42	6598.44
2742.76	6581.9
2744.1	6554.55
2745.44	6573.33
2746.78	6534.71
2748.11	6541.4
2749.45	6536.47
2750.79	6504.04
2752.12	6500.86
2753.46	6513.71
2754.8	6504.06
2756.13	6517.77
2757.47	6480.48
2758.81	6455.01
2760.14	6477.5
2761.47	6437.42
2762.81	6482.22
2764.14	6464.28
2765.48	6469.38
2766.81	6473.86
2768.15	6421.42
2769.48	6444.57
2770.81	6464.21
2772.15	6451.63
2773.48	6455.24
2774.81	6412.28
2776.14	6447.74
2777.48	6455.71
2778.81	6433.74
2780.14	6424.48
2781.47	6423.03
2782.8	6440.02
2784.13	6417.42
2785.47	6436.31
2786.8	6431.41
2788.13	6395.1
2789.46	6411.48
2790.79	6436.63
2792.12	6440.92
2793.44	6438.06
2794.77	6441.8
2796.1	6440.64
2797.43	6458.33
2798.76	6477.31
2800.09	6436.91
2801.42	6435.77
2802.74	6462.28
2804.07	6441.89
2805.4	6443.27
2806.73	6426.7
2808.05	6446.09
2809.38	6437.7
2810.71	6452.23
2812.03	6495.21
2813.36	6505.78
2814.68	6526.24
2816.01	6523.63
2817.33	6521.45
2818.66	6521.93
2819.98	6574.31
2821.31	6575.33
2822.63	6594.46
2823.96	6627.57
2825.28	6647.58
2826.6	6691.67
2827.93	6726.02
2829.25	6805.07
2830.57	6853.11
2831.9	6916.71
2833.22	7037.35
2834.54	7146.39
2835.86	7305.49
2837.19	7460.58
2838.51	7675.68
2839.83	7982.44
2841.15	8345.95
2842.47	8704.1
2843.79	9070.46
2845.11	9509.16
2846.43	9772.67
2847.75	10010
2849.07	10073.7
2850.39	10086
2851.71	10029.4
2853.03	9930.91
2854.35	9839.58
2855.66	9644.61
2856.98	9557.69
2858.3	9468.9
2859.62	9434.95
2860.94	9336.27
2862.25	9291.72
2863.57	9273.47
2864.89	9261.02
2866.2	9254.57
2867.52	9325.34
2868.84	9426.6
2870.15	9528.74
2871.47	9601.61
2872.78	9650.1
2874.1	9710.47
2875.41	9762.62
2876.73	9905.47
2878.04	9951.04
2879.36	10003.2
2880.67	10071.1
2881.98	10105.4
2883.3	10087.1
2884.61	10138.7
2885.92	10102.8
2887.24	10084.9
2888.55	10102.9
2889.86	10094.2
2891.18	10100.4
2892.49	10106.5
2893.8	10113.6
2895.11	10082.3
2896.42	10087.7
2897.73	10107.4
2899.04	10067.5
2900.35	10057
2901.67	10058.8
2902.97	10030.4
2904.29	9987.26
2905.59	10023.2
2906.9	10004.9
2908.21	9941.79
2909.52	9960.87
2910.83	9924.24
2912.14	9943.2
2913.45	9943.22
2914.76	9902.9
2916.06	9880.76
2917.37	9902.9
2918.68	9892.36
2919.99	9900.81
2921.29	9889.1
2922.6	9880.44
2923.91	9889.88
2925.21	9913.78
2926.52	9862.16
2927.82	9919.07
2929.13	9887.36
2930.44	9908.64
2931.74	9853.17
2933.05	9841.09
2934.35	9779.47
2935.65	9741.41
2936.96	9594.46
2938.26	9440.6
2939.57	9303.44
2940.87	9190.99
2942.17	8994.63
2943.48	8808.19
2944.78	8640.13
2946.08	8512.52
2947.38	8454.4
2948.69	8361.46
2949.99	8257.67
2951.29	8238.5
2952.59	8224.34
2953.89	8165.06
2955.19	8137.45
2956.49	8060.64
2957.8	8053.91
2959.1	8044.74
2960.4	7954.68
2961.7	7917.93
2962.99	7862.98
2964.29	7792.11
2965.59	7762.68
2966.89	7706.05
2968.19	7639.98
2969.49	7555.29
2970.79	7490.11
2972.09	7440.42
2973.38	7350.6
2974.68	7343.17
2975.98	7274.46
2977.28	7253.92
2978.57	7209.05
2979.87	7163.63
2981.17	7136.16
2982.46	7128.32
2983.76	7057.27
2985.05	7008.94
2986.35	7001.69
2987.65	6982.52
2988.94	6946.24
2990.24	6937.52
2991.53	6899.11
2992.82	6906.69
2994.12	6901.37
2995.41	6923.69
2996.71	6874.04
2998	6870.83
2999.29	6862.09
3000.59	6878.99
3001.88	6869.14
3003.17	6863.56
3004.47	6870.06
3005.76	6845.02
3007.05	6825.81
3008.34	6837.18
3009.63	6803.73
3010.92	6779.27
3012.21	6724.99
3013.5	6742.83
3014.8	6730.34
3016.09	6705.18
3017.38	6690.93
3018.67	6674.13
3019.96	6658.55
3021.25	6650.47
3022.54	6621.35
3023.82	6620.54
3025.11	6620.47
3026.4	6638.28
3027.69	6585.44
3028.98	6596.51
3030.27	6592.59
3031.55	6586.29
3032.84	6561.93
3034.13	6597.33
3035.42	6606.37
3036.7	6595.42
3037.99	6603.81
3039.28	6621.87
3040.56	6593.73
3041.85	6634.21
3043.13	6633.36
3044.42	6615.03
3045.7	6655.42
3046.99	6624.67
3048.27	6649.51
3049.56	6651.62
3050.84	6670.83
3052.13	6674.43
3053.41	6692.94
3054.69	6733.15
3055.98	6715.56
3057.26	6721.36
3058.54	6682.28
3059.83	6728.8
3061.11	6719.22
3062.39	6745.58
3063.67	6759.84
3064.95	6773.55
3066.24	6802.21
3067.52	6769.35
3068.8	6781.51
3070.08	6779.97
3071.36	6780.76
3072.64	6788.92
3073.92	6801.76
3075.2	6794.5
3076.48	6776.74
3077.76	6840.28
3079.04	6818.06
3080.32	6845.87
3081.6	6846.8
3082.88	6851.1
3084.16	6858.54
3085.44	6857.27
3086.71	6901.09
3087.99	6887.4
3089.27	6912.08
3090.55	6904.7
3091.82	6887.06
3093.1	6924.92
3094.38	6937.82
3095.65	6935.03
3096.93	6964.61
3098.21	6944.2
3099.48	7007.99
3100.76	7005.77
3102.03	7000.59
3103.31	7021.45
3104.58	7040.16
3105.86	7097.1
3107.13	7080.98
3108.41	7099.06
3109.68	7108.19
3110.96	7130.59
3112.23	7159.09
3113.5	7194.84
3114.78	7189.85
3116.05	7207.14
3117.32	7258.91
3118.59	7229.97
3119.87	7247.02
3121.14	7267.67
3122.41	7296.17
3123.68	7292.93
3124.95	7322.47
3126.23	7356.29
3127.5	7330.64
3128.77	7401.84
3130.04	7406.7
3131.31	7442.67
3132.58	7441.81
3133.85	7444.78
3135.12	7465
3136.39	7510.56
3137.66	7521.34
3138.93	7547.18
3140.2	7562.88
3141.46	7558.95
3142.73	7580.75
3144	7617.33
3145.27	7636.81
3146.54	7669.36
3147.8	7701.97
3149.07	7720.85
3150.34	7730.56
3151.6	7740.38
3152.87	7748.74
3154.14	7785.14
3155.4	7817.71
3156.67	7873.65
3157.94	7820
3159.2	7863.73
3160.47	7883.72
3161.73	7872.61
3163	7887.22
3164.26	7938.76
3165.53	7951.14
3166.79	7967.76
3168.05	7961.13
3169.32	7965.48
3170.58	8000.82
3171.84	7994.35
3173.11	8032.22
3174.37	8053.31
3175.63	8013.9
3176.9	8033.27
3178.16	8024.48
3179.42	8006.59
3180.68	8055.65
3181.94	8017.34
3183.21	8058.82
3184.47	8085.67
3185.73	8055.04
3186.99	8075.29
3188.25	8097.89
3189.51	8156.05
3190.77	8108.54
3192.03	8122.17
3193.29	8114.71
3194.55	8125.6
3195.81	8126.54
3197.07	8129.93
3198.33	8136.42
3199.58	8127.61
3200.84	8130.28
3202.1	8168.81
3203.36	8169.71
3204.62	8140.28
3205.87	8146.7
3207.13	8179.8
3208.39	8169.02
3209.65	8167.58
3210.9	8176.06
3212.16	8189.25
3213.41	8170.75
3214.67	8166.05
3215.93	8157.9
3217.18	8148.19
3218.44	8168.84
3219.69	8170.86
3220.95	8148.48
3222.2	8161.12
3223.46	8159.45
3224.71	8165.39
3225.97	8144.21
3227.22	8150.68
3228.47	8158.64
3229.73	8144.2
3230.98	8145.29
3232.23	8159.96
3233.48	8152.23
3234.74	8154.57
3235.99	8136.24
3237.24	8148.42
3238.49	8142.46
3239.75	8143.51
3241	8137.52
3242.25	8137.5
3243.5	8086.8
3244.75	8091.76
3246	8121.98
3247.25	8117.86
3248.5	8118.3
3249.75	8083.32
3251	8094.58
3252.25	8091.08
3253.5	8069.14
3254.75	8046.69
3256	8069.46
3257.25	8065.61
3258.49	8028.41
3259.74	8029.57
3260.99	8015.15
3262.24	8027.26
3263.49	8033.18
3264.73	8019.13
3265.98	8002.8
3267.23	8007.42
3268.47	8026.88
3269.72	8021.69
3270.97	8020.95
3272.21	7985.7
3273.46	7983.85
3274.7	7992.89
3275.95	7984.73
3277.2	7970.06
3278.44	7988.91
3279.69	7966.75
3280.93	7946.5
3282.17	7952.68
3283.42	7942.32
3284.66	7957.65
3285.91	7957.84
3287.15	7925.84
3288.39	7933.62
3289.64	7928.93
3290.88	7916.9
3292.12	7928.03
3292.31	7926.55
3293.56	7915.97
3294.8	7938.82
3296.05	7926.15
3297.3	7912.34
3298.55	7929.02
3299.79	7926.82
3301.04	7902.8
3302.29	7905.71
3303.54	7897.51
3304.78	7885.65
3306.03	7894.71
3307.27	7882.06
3308.52	7910.73
3309.76	7858.57
3311.01	7874.64
3312.26	7877.8
3313.5	7843.93
3314.75	7884.73
3315.99	7868.18
3317.23	7887.31
3318.48	7863.24
3319.72	7865.27
3320.97	7885.25
3322.21	7898.64
3323.45	7870.11
3324.7	7934.66
3325.94	7896.83
3327.18	7885.95
3328.42	7874.68
3329.67	7902.15
3330.91	7836.12
3332.15	7884.09
3333.39	7895.12
3334.63	7896.53
3335.87	7890.76
3337.12	7871.89
3338.36	7885.2
3339.6	7875.29
3340.84	7863.61
3342.08	7871.34
3343.32	7888.37
3344.56	7850.21
3345.8	7869.6
3347.04	7917.94
3348.27	7893.25
3349.51	7879.71
3350.75	7888.28
3351.99	7862.51
3353.23	7855.96
3354.47	7884.09
3355.7	7865.52
3356.94	7879.52
3358.18	7840.29
3359.42	7878.26
3360.65	7883.84
3361.89	7859.6
3363.13	7849.19
3364.36	7876.55
3365.6	7851.05
3366.83	7879.24
3368.07	7856.81
3369.31	7887.89
3370.54	7886.56
3371.78	7860.08
3373.01	7900.88
3374.25	7896.14
3375.48	7900.5
3376.71	7908.3
3377.95	7899.02
3379.18	7889.26
3380.42	7865.72
3381.65	7906.68
3382.88	7882.83
3384.12	7896.41
3385.35	7869.3
3386.58	7864.91
3387.81	7857.01
3389.04	7871.88
3390.28	7880.35
3391.51	7857.26
3392.74	7827.98
3393.97	7914.43
3395.2	7873.3
3396.43	7862.1
3397.67	7886.85
3398.9	7896.83
3400.13	7895.07
3401.36	7872.75
3402.58	7912.63
3403.82	7846.17
3405.05	7846.52
3406.27	7862.96
3407.5	7819.67
3408.73	7851.32
3409.96	7829.17
3411.19	7842.75
3412.42	7781.07
3413.64	7818.7
3414.87	7830.9
3416.1	7869.71
3417.33	7779.24
3418.55	7855.09
3419.78	7810.28
3421.01	7796.39
3422.23	7790.05
3423.46	7747.1
3424.69	7773.14
3425.91	7800.63
3427.14	7774.71
3428.36	7783.63
3429.59	7725.44
3430.81	7741.08
3432.04	7727.51
3433.26	7744.76
3434.49	7740.06
3435.71	7707.12
3436.94	7702.93
3438.16	7699.02
3439.39	7702.42
3440.61	7701.59
3441.83	7688.51
3443.05	7683.7
3444.28	7638.07
3445.5	7641.9
3446.72	7616.82
3447.95	7646.81
3449.17	7588.61
3450.39	7591
3451.61	7600.43
3452.83	7569.53
3454.05	7566.56
3455.27	7554.02
3456.5	7514.12
3457.71	7521.89
3458.94	7521
3460.16	7533.25
3461.38	7497.99
3462.59	7457.91
3463.81	7467.31
3465.03	7459.53
3466.25	7468.03
3467.47	7437.77
3468.69	7448.39
3469.91	7431.01
3471.13	7375.41
3472.35	7379.97
3473.56	7348.78
3474.78	7343.99
3476	7356.47
3477.22	7335.01
3478.43	7300.65
3479.65	7297.4
3480.87	7300.52
3482.08	7251.42
3483.3	7211.36
3484.52	7204.51
3485.73	7212.47
3486.95	7161.64
3488.16	7186.66
3489.38	7178.63
3490.59	7111.57
3491.81	7130.12
3493.02	7107.86
3494.24	7060
3495.45	7076.59
3496.67	7054
3497.88	7032.85
3499.09	7029.84
