#Acq. time (s)=	7
#Accumulations=	20
#Range (cm-¹)=	400...3500
#Windows=	3
#Auto scanning=	Off
#Autofocus=	Off
#AutoExposure=	Off
#Spike filter=	Multiple accum.
#Delay time (s)=	0
#Binning=	1
#Readout mode=	Signal
#DeNoise=	Off
#ICS correction=	On
#Dark correction=	Off
#Inst. Process=	Off
#Detector Gain=	Best Dynamic Range
#Detector ADC=	45 kHz       
#Detector temperature (°C)=	-60.1
#Instrument=	LabRAM HR Evol
#Detector=	Syncerity OE
#Objective=	x50_VIS_LWD
#Grating=	600 (500nm)
#ND Filter=	50%
#Laser=	532nm_Edge
#Hole=	199.981
#Range=	Visible
#E-Cal_Neon=	0
#StageXY=	75x50mm Scan+
#StageZ=	Z motor
#X (µm)=	0
#Y (µm)=	0
#Z (µm)=	338.3
#Spectral res.(cm-¹)=	12.8
#Full time(mm:ss)=	7:26
#AC=	Calibrated 2025-07-01 10:31
#Project=	
#Sample=	
#Site=	
#Title=	D_1
#Remark=	
#Date=	01.07.2025 12:45 (India Standard Time)
#Acquired=	01.07.2025 12:45:18 (India Standard Time)
#AxisType[0]=Intens
#AxisUnit[0]=Cnt
#AxisType[1]=Spectr
#AxisUnit[1]=1/cm
400.083	14581.5
401.858	14479.8
403.63	14462
405.405	14485.3
407.176	14490.5
408.949	14495
410.72	14477.1
412.493	14447.2
414.263	14456.3
416.033	14514.6
417.805	14510.5
419.574	14489.5
421.345	14472.2
423.114	14459.2
424.884	14433
426.652	14461
428.421	14471.1
430.188	14435
431.955	14453.1
433.724	14476.1
435.49	14488.6
437.258	14408
439.023	14444.1
440.788	14409.6
442.555	14372.9
444.32	14395.6
446.084	14409.4
447.85	14366.2
449.613	14345.5
451.376	14329.4
453.141	14366.4
454.904	14324.7
456.666	14291.8
458.429	14301.9
460.191	14309.3
461.952	14310.3
463.715	14283.6
465.475	14247.5
467.235	14290.6
468.995	14255.9
470.756	14295.5
472.515	14295.3
474.274	14260.3
476.032	14250.6
477.793	14216
479.55	14218.3
481.308	14212.6
483.065	14232.3
484.823	14234.1
486.58	14274.9
488.336	14238.4
490.091	14228
491.847	14227.2
493.604	14215.1
495.358	14206.9
497.113	14243.9
498.867	14234.4
500.62	14265.6
502.374	14269
504.127	14224.3
505.881	14278.4
507.634	14261.2
509.386	14247.6
511.137	14239.9
512.888	14262.9
514.639	14217.6
516.39	14228.5
518.14	14234.7
519.89	14193.2
521.642	14200.9
523.391	14163.3
525.14	14134.6
526.889	14166.2
528.637	14149.7
530.385	14129.9
532.133	14140.7
533.88	14091.4
535.627	14124.4
537.373	14108.8
539.12	14079.5
540.866	14046.7
542.611	14060.6
544.357	14057.3
546.101	14014.1
547.846	14022
549.59	14036.2
551.334	14026.3
553.078	13998.7
554.821	14031.2
556.564	14009.6
558.307	13978.1
560.049	14012.2
561.789	13977.5
563.53	14007.8
565.272	13998.1
567.013	13977.2
568.753	13969.2
570.494	13960.7
572.233	13972.8
573.973	13977
575.712	13978.4
577.449	13942.2
579.188	13985.9
580.926	13927.2
582.664	13928.4
584.402	13960.9
586.139	13935.3
587.876	13948
589.611	13932.7
591.347	13901.3
593.083	13915.3
594.818	13949.1
596.554	13957.7
598.287	13911.4
600.021	13884.7
601.756	13888.7
603.49	13876.9
605.221	13880.1
606.955	13916.5
608.688	13849.9
610.42	13888.5
612.15	13854.4
613.882	13819.2
615.614	13801.8
617.345	13822.7
619.074	13806.3
620.805	13772
622.535	13746.1
624.263	13747
625.993	13700.5
627.722	13675.6
629.45	13701.9
631.178	13669
632.907	13641.2
634.633	13675.3
636.36	13668.5
638.088	13677.3
639.813	13688.3
641.539	13694.7
643.264	13641.7
644.99	13629.5
646.716	13624.9
648.439	13630.9
650.164	13561.9
651.887	13556.9
653.611	13599.5
655.335	13586.1
657.057	13565.3
658.781	13593.3
660.502	13551.9
662.225	13537.6
663.945	13548.5
665.667	13540.8
667.387	13501.8
669.108	13553.7
670.828	13509.7
672.548	13494.7
674.267	13518.8
675.987	13480.2
677.705	13513.4
679.424	13478.3
681.142	13469.2
682.86	13500.9
684.577	13457
686.293	13521.5
688.011	13506.3
689.727	13450.3
691.444	13491.8
693.159	13445
694.875	13475.6
696.59	13486.1
698.304	13469.8
700.019	13480.1
701.733	13465.8
703.448	13453.4
705.16	13451.2
706.872	13448.3
708.586	13415.2
710.298	13366.1
712.01	13383.5
713.723	13369.3
715.433	13368.8
717.144	13370.4
718.856	13371.7
720.565	13354.8
722.275	13362
723.984	13365.3
725.695	13319.9
727.403	13293.7
729.111	13299.4
730.821	13282.4
732.528	13319.2
734.235	13276.7
735.942	13273.4
737.651	13278.3
739.357	13275.4
741.063	13230.6
742.768	13245.4
744.474	13221.2
746.18	13224
747.885	13242.2
749.589	13232.5
751.293	13239.1
752.997	13259
754.702	13224.5
756.405	13255.1
758.108	13251.8
759.81	13263.8
761.512	13228.8
763.214	13210.5
764.915	13243
766.618	13233
768.319	13242.3
770.019	13231.5
771.719	13236.3
773.419	13202.2
775.118	13265
776.817	13233.9
778.516	13189.2
780.214	13195.1
781.913	13178.7
783.61	13156.6
785.308	13181.5
787.005	13191.2
788.702	13179.7
790.398	13105.1
792.095	13144.5
793.791	13095.4
795.486	13116.6
797.181	13112.2
798.876	13082.7
800.571	13111
802.265	13116.4
803.959	13138.7
805.653	13089.1
807.346	13064.5
809.039	13063
810.732	13028.3
812.424	13008.2
814.116	12988.9
815.808	13050.6
817.5	13049
819.191	13033.5
820.881	13046.6
822.572	13052.3
824.26	13057.9
825.95	13083
827.639	13085.4
829.329	13025.4
831.018	13066.5
832.706	13059.5
834.394	13006.4
836.08	13044.2
837.768	13017.6
839.455	13008.9
841.142	13054.7
842.829	13082.5
844.513	13073.3
846.199	13056
847.885	13082.6
849.57	13083.7
851.255	13074.8
852.938	13044.2
854.623	13031.3
856.307	13047.1
857.991	13025.2
859.672	13107.8
861.355	13061.7
863.038	13035.5
864.719	13011.5
866.401	13041.6
868.083	13024.2
869.765	12992.9
871.444	13026.6
873.125	13017
874.806	13024.1
876.484	13056.1
878.164	12977.5
879.844	12982.7
881.521	12923.7
883.2	12929.1
884.877	12934.1
886.555	12919.7
888.234	12899.7
889.909	12924.5
891.587	12882.3
893.262	12838.2
894.939	12799.2
896.616	12782
898.29	12811
899.966	12743.1
901.64	12737.9
903.315	12707
904.988	12689.9
906.663	12644.1
908.335	12659
910.009	12647.9
911.683	12650.7
913.354	12644
915.027	12605.8
916.698	12613.8
918.369	12607.9
920.041	12602.2
921.711	12583.4
923.383	12554.9
925.052	12551.5
926.723	12501.7
928.391	12487.1
930.062	12491.6
931.73	12439
933.399	12450.6
935.067	12436.9
936.734	12426.8
938.403	12437.2
940.069	12474.5
941.737	12447.7
943.403	12483.4
945.069	12433
946.736	12466.2
948.401	12451.1
950.065	12448.3
951.732	12434.9
953.396	12448
955.059	12419.3
956.725	12472.1
958.388	12435.6
960.051	12439.5
961.715	12430.1
963.377	12450.7
965.039	12417.4
966.7	12385.1
968.364	12400.4
970.025	12392.4
971.685	12333.1
973.345	12293.8
975.007	12347.4
976.667	12303.2
978.326	12309.6
979.985	12328.5
981.646	12353.9
983.304	12328.3
984.963	12353.3
986.62	12359.2
988.278	12353.7
989.935	12364.8
991.594	12392
993.25	12398.1
994.907	12441.5
996.563	12528.7
998.218	12578.2
999.874	12679.7
1001.53	12676.5
1003.19	12654.2
1004.84	12610
1006.49	12547.9
1008.15	12476.7
1009.8	12408
1011.45	12387.6
1013.11	12319.5
1014.76	12330.8
1016.41	12336.9
1018.06	12314.1
1019.72	12278.4
1021.37	12240.5
1023.02	12223.5
1024.67	12219.9
1026.32	12179.8
1027.97	12189
1029.62	12148.3
1031.27	12125.5
1032.92	12117.3
1034.57	12089.2
1036.22	12135.7
1037.86	12114.5
1039.51	12096.2
1041.16	12063.4
1042.81	12092.3
1044.45	12082.8
1046.1	12087.6
1047.75	12084.3
1049.39	12079.6
1051.04	12083.7
1052.68	12077.1
1054.33	12097.4
1055.97	12142.7
1057.62	12173.6
1059.26	12217.1
1060.91	12220.4
1062.55	12193.8
1064.19	12167.4
1065.83	12125.9
1067.48	12098
1069.12	12112.1
1070.76	12105.9
1072.4	12087.8
1074.04	12077.9
1075.68	12135.2
1077.32	12137.7
1078.97	12122.1
1080.61	12083.2
1082.24	12107.5
1083.88	12074.5
1085.52	12091.8
1087.16	12033.4
1088.8	12018.6
1090.44	11984.2
1092.08	11928.8
1093.71	11961.1
1095.35	11893
1096.99	11878.9
1098.62	11837.4
1100.26	11786.4
1101.9	11808.1
1103.53	11818.5
1105.17	11760
1106.8	11774.1
1108.44	11751.3
1110.07	11770.8
1111.7	11784.9
1113.34	11821.4
1114.97	11835.5
1116.6	11848.3
1118.23	11857.8
1119.87	11898.6
1121.5	11891
1123.13	11865.8
1124.76	11884.7
1126.39	11841.7
1128.03	11838.8
1129.65	11799.2
1131.29	11727.7
1132.91	11706.7
1134.54	11687.9
1136.17	11664.5
1137.8	11636.7
1139.43	11717.8
1141.06	11698.5
1142.69	11740
1144.31	11834
1145.94	11928.9
1147.57	12052
1149.19	12173.1
1150.82	12349
1152.45	12490.2
1154.07	12581.5
1155.7	12581.1
1157.32	12417.9
1158.95	12216.6
1160.57	12015.5
1162.2	11852.7
1163.82	11696.2
1165.44	11582.5
1167.07	11535.2
1168.69	11493.9
1170.31	11494.7
1171.94	11478.9
1173.56	11454.7
1175.18	11401.8
1176.8	11396.3
1178.42	11375.5
1180.04	11397
1181.66	11387.6
1183.28	11386.7
1184.9	11412.2
1186.52	11366.6
1188.14	11394.9
1189.76	11391.1
1191.38	11359.6
1192.99	11338
1194.61	11287.9
1196.23	11296.6
1197.85	11283.5
1199.46	11236.7
1201.08	11215.8
1202.7	11204.5
1204.31	11206.3
1205.93	11220.1
1207.54	11176.9
1209.16	11206.6
1210.78	11203
1212.39	11175.3
1214	11132.6
1215.62	11102.6
1217.23	11073
1218.84	11072.1
1220.46	11066.3
1222.07	11071.6
1223.68	11042.2
1225.29	11024.1
1226.91	11018.4
1228.52	11055.5
1230.13	11044.8
1231.74	11041
1233.35	11023.1
1234.96	11023.9
1236.57	11035.5
1238.18	11025.4
1239.79	11028
1241.4	11080.3
1243	11045.2
1244.61	11058.2
1246.22	11109.4
1247.83	11101.8
1249.43	11096.3
1251.04	11114.1
1252.65	11064.9
1254.25	11091.4
1255.86	11084
1257.47	11122.1
1259.07	11102.9
1260.68	11113
1262.28	11129.1
1263.89	11133
1265.49	11102.1
1267.09	11119.4
1268.7	11047.2
1270.3	11017.1
1271.9	11050.4
1273.51	11005.8
1275.11	11013.5
1276.71	10941.1
1278.31	10964.7
1279.91	10965.4
1281.52	10932.4
1283.12	10951.7
1284.72	10916.3
1286.32	10942.4
1287.92	10977.6
1289.52	11004.4
1291.12	11027.9
1292.72	11094.8
1294.31	11144.2
1295.91	11212.6
1297.51	11173.4
1299.11	11170.5
1300.71	11142.3
1302.3	11152
1303.9	11100.9
1305.5	11072.5
1307.09	11018.3
1308.69	10974.3
1310.28	10964.6
1311.88	10933.5
1313.47	10870.2
1315.07	10774.1
1316.66	10757.9
1318.26	10753.7
1319.85	10720.5
1321.44	10697
1323.04	10726
1324.63	10663.8
1326.22	10675.9
1327.82	10632
1329.41	10650.4
1331	10622.4
1332.59	10621.4
1334.18	10609.3
1335.77	10624.9
1337.36	10602.4
1338.95	10607
1340.54	10611.6
1342.13	10577.6
1343.72	10550.7
1345.31	10530.2
1346.9	10537.8
1348.49	10547.5
1350.07	10544.5
1351.66	10501.2
1353.25	10479
1354.84	10447
1356.42	10435.1
1358.01	10414.9
1359.6	10371.1
1361.18	10362.5
1362.77	10387.1
1364.35	10362.5
1365.94	10361.9
1367.52	10365.9
1369.11	10347.3
1370.69	10312.9
1372.28	10303.8
1373.86	10275.1
1375.44	10240.2
1377.02	10186.2
1378.61	10215.5
1380.19	10208.5
1381.77	10211.1
1383.35	10164.5
1384.93	10160.9
1386.52	10172
1388.1	10165.5
1389.68	10195
1391.26	10177.8
1392.84	10140.2
1394.41	10121.1
1396	10112.4
1397.57	10135.7
1399.15	10115.2
1400.73	10131.7
1402.31	10081
1403.89	10105.7
1405.46	10076.2
1407.04	10096.7
1408.62	10109.8
1410.19	10130.4
1411.77	10158
1413.35	10105
1414.92	10161.5
1416.5	10176.3
1418.07	10210.6
1419.65	10206.1
1421.22	10199.5
1422.8	10216.7
1424.37	10232.6
1425.94	10312.7
1427.52	10372.1
1429.09	10455.8
1430.66	10591.3
1432.23	10683.8
1433.8	10785.6
1435.38	10871.8
1436.95	10904.5
1438.52	10941.6
1440.09	10903.7
1441.66	10870.5
1443.23	10879
1444.8	10788.8
1446.37	10791.7
1447.94	10742.5
1449.51	10734.2
1451.08	10660.4
1452.65	10614.6
1454.22	10590.1
1455.78	10566.2
1457.35	10513.1
1458.92	10520.4
1460.48	10463
1462.05	10386.2
1463.62	10314.6
1465.18	10278.6
1466.75	10196.8
1468.31	10145.3
1469.88	10059.8
1471.44	10033
1473.01	9933.91
1474.57	9895.32
1476.14	9838.44
1477.7	9794.5
1479.26	9751.83
1480.83	9765.96
1482.39	9731.3
1483.95	9674.3
1485.51	9662.19
1487.08	9687.19
1488.64	9702.06
1490.2	9690.38
1491.76	9677.55
1493.32	9713.54
1494.88	9733.88
1496.44	9734.79
1498	9738.69
1499.56	9768.76
1501.12	9768.89
1502.68	9810.67
1504.24	9858.67
1505.8	9898.53
1507.35	9981.42
1508.91	10080.5
1510.47	10156.9
1512.03	10265.9
1513.58	10378.6
1515.14	10440.1
1516.69	10542.2
1518.25	10578.8
1519.81	10582.1
1521.36	10581.7
1522.92	10542.8
1524.47	10407.5
1526.03	10314.7
1527.58	10153.6
1529.13	9978.36
1530.69	9853.7
1532.24	9690.88
1533.79	9628.99
1535.35	9553.74
1536.9	9500.9
1538.45	9474.71
1540	9473.88
1541.55	9424.35
1543.11	9402.25
1544.66	9364.62
1546.21	9329.34
1547.76	9320.39
1549.31	9288.36
1550.86	9312.44
1552.41	9319.91
1553.96	9295.24
1555.5	9319.89
1557.05	9229.75
1558.6	9246.85
1560.15	9220.45
1561.7	9237.17
1563.24	9225.88
1564.79	9224.64
1566.34	9227.87
1567.88	9215.13
1569.43	9240.49
1570.98	9204.99
1572.52	9221.55
1574.07	9201.43
1575.61	9177.89
1577.16	9145.77
1578.7	9179.87
1580.25	9173.3
1581.79	9188.44
1583.34	9175.89
1584.88	9142.07
1586.42	9175.38
1587.96	9167.07
1589.51	9169.97
1591.05	9165.66
1592.59	9140.8
1594.13	9164.38
1595.67	9143.9
1597.21	9148.67
1598.76	9124.91
1600.3	9133.42
1601.83	9146.34
1603.37	9130.94
1604.92	9093.06
1606.45	9107.66
1607.99	9097.83
1609.53	9089.64
1611.07	9078.73
1612.61	9059.04
1614.15	9046.96
1615.68	9037.34
1617.22	9033.24
1618.76	9016.68
1620.29	9009.04
1621.83	9003.34
1623.37	9015.58
1624.9	9005.17
1626.44	8976.87
1627.97	8998.71
1629.51	9019.37
1631.04	9021.04
1632.58	9005.79
1634.11	9023.57
1635.64	9024.49
1637.18	9003.2
1638.71	9051.56
1640.24	9034.07
1641.78	9057.69
1643.31	9059.03
1644.84	9104.69
1646.37	9172.49
1647.9	9223.24
1649.44	9274.6
1650.97	9265.65
1652.5	9291.97
1654.03	9285.58
1655.56	9256.28
1657.09	9163.85
1658.62	9124.98
1660.14	9069.24
1661.67	9008.16
1663.2	8997.72
1664.73	8953.1
1666.26	8923.29
1667.79	8912.2
1669.31	8886.04
1670.84	8844.68
1672.37	8847.93
1673.89	8831.01
1675.42	8820.23
1676.95	8771.9
1678.47	8727.7
1680	8684.74
1681.52	8681.16
1683.05	8700.89
1684.57	8631.22
1686.1	8639.18
1687.62	8596.48
1689.14	8593.9
1690.67	8570.01
1692.19	8539.11
1693.71	8508.18
1695.23	8511.57
1696.76	8497.22
1698.28	8449.85
1699.8	8452.39
1701.32	8439.85
1702.84	8419.6
1704.36	8389.57
1705.88	8410.52
1707.4	8394.79
1708.92	8374.88
1710.44	8353.28
1711.96	8341.79
1713.48	8333.88
1715	8348.67
1716.52	8319.28
1718.04	8325.83
1719.56	8294.45
1721.07	8309.37
1722.59	8270.83
1724.11	8319.24
1725.63	8311.43
1727.14	8276.47
1728.66	8302.97
1730.17	8299.77
1731.69	8320.1
1733.2	8314.93
1734.72	8320.57
1736.23	8342.23
1737.75	8329.46
1739.26	8356.44
1740.78	8334.85
1742.29	8339.85
1743.8	8318.16
1745.32	8323.97
1746.83	8292.25
1748.34	8292.55
1749.86	8248.42
1751.37	8230.57
1752.88	8178.96
1754.39	8181.29
1755.9	8109.57
1757.41	8125.67
1758.92	8087.5
1760.43	8071.61
1761.94	8065.77
1763.45	8042.89
1764.96	7984.76
1766.47	8030.84
1767.98	8076.68
1769.49	8006.62
1771	8008.13
1772.5	8016.56
1774.01	8013.39
1775.52	7991.31
1777.03	7999.55
1778.53	7961.88
1780.04	7955.23
1781.55	7963.45
1783.05	7937.61
1784.56	7920.79
1786.06	7941.26
1787.57	7954.17
1789.07	7933.07
1790.58	7939.11
1792.08	7914.06
1793.59	7895.15
1795.09	7882.77
1796.59	7920.84
1798.1	7877.64
1799.6	7852.61
1801.1	7854.66
1802.61	7838.11
1804.11	7846.58
1805.61	7836.18
1807.11	7856.05
1808.61	7838.84
1810.11	7822.09
1811.61	7793.1
1813.11	7795.2
1814.61	7781.1
1816.11	7791.34
1817.61	7766.6
1819.11	7749.27
1820.61	7743.99
1822.11	7757.78
1823.61	7748.67
1825.11	7732.03
1826.6	7745.68
1828.1	7735.6
1829.6	7735.8
1831.1	7709.19
1832.59	7684.68
1834.09	7714.87
1835.59	7696.19
1837.08	7677.64
1838.58	7697.75
1840.07	7706.52
1841.57	7681.62
1843.06	7684.15
1844.56	7682.69
1846.05	7667.97
1847.54	7661.67
1849.04	7656.18
1850.53	7665.49
1852.02	7605.68
1853.52	7622.95
1855.01	7597.46
1856.5	7587.35
1857.99	7583.65
1859.49	7567.63
1860.98	7551.48
1862.47	7554.1
1863.96	7563.62
1865.45	7561.27
1866.94	7545.87
1868.43	7542.68
1869.92	7539.01
1871.41	7538.42
1872.9	7525.45
1874.39	7503.88
1875.88	7519.76
1877.37	7509.51
1878.85	7513.75
1880.34	7491.52
1881.83	7500.13
1883.32	7457.09
1884.8	7441.6
1886.29	7443.65
1887.78	7402.78
1889.26	7430.17
1890.75	7433.9
1892.23	7415.68
1893.72	7399.36
1895.21	7380.37
1896.69	7363.37
1898.17	7382.93
1899.66	7360.54
1901.14	7316.69
1902.63	7282.12
1904.11	7276.99
1905.59	7234.19
1907.08	7223.19
1908.56	7190.65
1910.04	7149.07
1911.52	7165.17
1913	7097.32
1914.49	7090.16
1915.97	7065.57
1917.45	7023.38
1918.93	7001.39
1920.41	6971.96
1921.89	6960.84
1923.37	6929.75
1924.85	6914.34
1926.33	6876.05
1927.81	6864.88
1929.29	6829.5
1930.76	6813.4
1932.24	6765.41
1933.72	6768.94
1935.2	6764
1936.67	6730.97
1938.15	6691.84
1939.63	6673.56
1941.1	6656.39
1942.58	6617.57
1944.06	6603.22
1945.53	6590.39
1947.01	6567.6
1948.48	6503.17
1949.96	6509.01
1951.43	6472.56
1952.91	6444.47
1954.38	6427.69
1955.86	6400.23
1957.33	6365.96
1958.8	6321.05
1960.27	6322.41
1961.75	6287.39
1963.22	6301.28
1964.69	6277.99
1966.16	6239.76
1967.64	6237.64
1969.11	6203.4
1970.58	6163.55
1972.05	6168.08
1973.52	6123.9
1974.99	6117.05
1976.46	6081.36
1977.93	6088.82
1979.4	6045.53
1980.87	6004.83
1982.34	5995.83
1983.81	5987.29
1985.27	5968.16
1986.74	5947.93
1988.21	5919.52
1989.68	5900.86
1991.14	5873.78
1992.61	5844.78
1994.08	5816.62
1995.55	5813.94
1997.01	5779.01
1998.48	5759.08
1999.94	5745.53
2001.41	5723.3
2002.87	5710.54
2004.34	5679.71
2005.8	5673.11
2007.27	5660.42
2008.73	5632.34
2010.19	5618.46
2011.66	5604.57
2013.12	5591.33
2014.58	5568.54
2016.05	5552.16
2017.51	5543.68
2018.97	5514.14
2020.43	5492.93
2021.89	5478.37
2023.36	5446.91
2024.82	5444.15
2026.28	5434.76
2027.74	5405.22
2029.2	5386.23
2030.66	5375.15
2032.12	5358.63
2033.58	5353.26
2035.04	5321.6
2036.49	5312.67
2037.95	5287.07
2039.41	5279.53
2040.87	5263.11
2042.33	5247.17
2043.78	5232.54
2045.24	5233.45
2045.76	5234.63
2047.22	5220.14
2048.69	5206.87
2050.15	5193.49
2051.61	5181.64
2053.07	5193.97
2054.54	5192.67
2056	5182.31
2057.46	5197.02
2058.92	5157.3
2060.38	5175.36
2061.84	5152.23
2063.3	5159.19
2064.76	5154.86
2066.22	5168.7
2067.68	5147.17
2069.14	5133.92
2070.6	5142.43
2072.06	5119.94
2073.52	5118.76
2074.98	5113.08
2076.44	5118.58
2077.89	5106.16
2079.35	5101.2
2080.81	5097.09
2082.27	5090.3
2083.72	5102.89
2085.18	5088.65
2086.63	5082.85
2088.09	5075.58
2089.55	5080.94
2091	5056.56
2092.46	5060.38
2093.91	5051.36
2095.37	5043.3
2096.82	5046.47
2098.28	5054.28
2099.73	5035.47
2101.18	5007.97
2102.64	5023.07
2104.09	5001.98
2105.54	5020.52
2106.99	4970.97
2108.45	4995.09
2109.9	4985.3
2111.35	4993.71
2112.8	4993.71
2114.25	4971.75
2115.71	4989.49
2117.16	4988.02
2118.61	4977.7
2120.06	4956.01
2121.51	4963.96
2122.96	4957.15
2124.4	4966.14
2125.85	4962.37
2127.3	4934.72
2128.75	4941.64
2130.2	4909.65
2131.65	4927.55
2133.09	4930.52
2134.54	4905.9
2135.99	4917.84
2137.44	4902.99
2138.88	4898.48
2140.33	4913.17
2141.78	4901.63
2143.22	4875.43
2144.67	4888.87
2146.11	4888.58
2147.56	4885.16
2149	4887.53
2150.45	4902.25
2151.89	4886.17
2153.34	4852.98
2154.78	4891.35
2156.22	4864.42
2157.67	4846.76
2159.11	4857.19
2160.55	4847.18
2162	4862.67
2163.44	4854.06
2164.88	4844.17
2166.32	4846.28
2167.76	4840.82
2169.2	4843.99
2170.64	4852.52
2172.09	4818.47
2173.53	4830.4
2174.97	4833.39
2176.41	4806.65
2177.85	4801.95
2179.29	4794.84
2180.72	4782.24
2182.16	4819.29
2183.6	4781.97
2185.04	4776.65
2186.48	4774.5
2187.92	4767.12
2189.35	4763.42
2190.79	4772.33
2192.23	4750.58
2193.66	4749.25
2195.1	4757.19
2196.54	4721.4
2197.97	4727.09
2199.41	4729.13
2200.84	4713.53
2202.28	4720.29
2203.71	4725.55
2205.15	4705.7
2206.58	4703.72
2208.02	4709.65
2209.45	4683.65
2210.88	4674.01
2212.32	4685.83
2213.75	4676.76
2215.18	4673.54
2216.62	4663.6
2218.05	4644.23
2219.48	4642.36
2220.91	4627.99
2222.34	4630.79
2223.78	4618.06
2225.21	4613.42
2226.64	4618.4
2228.07	4600.68
2229.5	4601.06
2230.93	4630.11
2232.36	4602.9
2233.79	4597.25
2235.22	4594.49
2236.65	4593.77
2238.07	4578.89
2239.5	4549.52
2240.93	4569.51
2242.36	4543.32
2243.79	4540.2
2245.21	4546.54
2246.64	4535.62
2248.07	4544.76
2249.49	4547.52
2250.92	4521.03
2252.35	4531.67
2253.77	4500.62
2255.2	4505.01
2256.62	4487.72
2258.05	4486.83
2259.47	4452.57
2260.9	4468.13
2262.32	4443.02
2263.75	4452.54
2265.17	4456.54
2266.59	4425.09
2268.02	4442.19
2269.44	4414.06
2270.86	4421.43
2272.29	4420.45
2273.71	4401.67
2275.13	4382.83
2276.55	4410.75
2277.97	4392.29
2279.39	4372.71
2280.81	4378.05
2282.24	4373.03
2283.66	4367.51
2285.08	4355.87
2286.5	4331.28
2287.92	4354.11
2289.34	4324.56
2290.75	4320.1
2292.17	4339.84
2293.59	4313.69
2295.01	4316.93
2296.43	4316.65
2297.85	4299.79
2299.26	4310.21
2300.68	4312.44
2302.1	4281.74
2303.51	4266.81
2304.93	4295.35
2306.35	4257.07
2307.76	4256.28
2309.18	4268.1
2310.6	4268.65
2312.01	4230.89
2313.43	4253.14
2314.84	4248.97
2316.25	4224.15
2317.67	4211.04
2319.08	4212.29
2320.5	4224.43
2321.91	4210.44
2323.32	4249.1
2324.74	4274.52
2326.15	4303.69
2327.56	4365.84
2328.98	4407.63
2330.39	4297.84
2331.8	4207.91
2333.21	4162.32
2334.62	4151.52
2336.03	4152.9
2337.44	4121
2338.85	4151.1
2340.26	4120.26
2341.67	4127.42
2343.08	4122.27
2344.49	4104.27
2345.9	4100.78
2347.31	4095.58
2348.72	4089.89
2350.13	4060.47
2351.54	4084.64
2352.94	4081.88
2354.35	4066.61
2355.76	4057.24
2357.17	4050.96
2358.57	4042.7
2359.98	4026.14
2361.39	4020.43
2362.79	4030.41
2364.2	4024.31
2365.6	4025.78
2367.01	4003.03
2368.41	4011.37
2369.82	4006.68
2371.22	4016
2372.63	4003.16
2374.03	3982.41
2375.44	3966.18
2376.84	3987.16
2378.24	3970.97
2379.65	3945.81
2381.05	3945.98
2382.45	3961.57
2383.85	3951.03
2385.26	3938.24
2386.66	3916.17
2388.06	3940.43
2389.46	3939.39
2390.86	3943.11
2392.26	3936.76
2393.66	3912.95
2395.06	3914.71
2396.46	3904.9
2397.86	3895
2399.26	3907.97
2400.66	3884.84
2402.06	3895.16
2403.46	3884.74
2404.86	3906.18
2406.26	3851.45
2407.66	3884.95
2409.05	3881.74
2410.45	3884.43
2411.85	3865.86
2413.24	3852.91
2414.64	3848.6
2416.04	3852.19
2417.43	3850.74
2418.83	3853.94
2420.23	3831.28
2421.62	3812.65
2423.02	3810.09
2424.41	3823.04
2425.81	3819.72
2427.2	3818.1
2428.6	3800.44
2429.99	3795.56
2431.38	3792.43
2432.78	3799.9
2434.17	3782.26
2435.56	3768.6
2436.96	3797.93
2438.35	3774.38
2439.74	3779.28
2441.13	3778.04
2442.53	3764.71
2443.92	3765.06
2445.31	3726.38
2446.7	3744.25
2448.09	3759.24
2449.48	3747.31
2450.87	3736.05
2452.26	3739.61
2453.65	3738.11
2455.04	3729.01
2456.43	3715.93
2457.82	3722.02
2459.21	3721.52
2460.6	3720.41
2461.98	3699.3
2463.37	3669.47
2464.76	3688.5
2466.15	3683.82
2467.53	3669.34
2468.92	3691.93
2470.31	3665.72
2471.7	3678.88
2473.08	3656.63
2474.47	3647.64
2475.85	3651.73
2477.24	3662.75
2478.63	3650.73
2480.01	3631.25
2481.39	3644.95
2482.78	3651.13
2484.16	3645.82
2485.55	3624.13
2486.93	3621.67
2488.32	3620.89
2489.7	3606.58
2491.08	3620.01
2492.46	3603.11
2493.85	3586.37
2495.23	3592.58
2496.61	3595.44
2497.99	3597.73
2499.38	3593.89
2500.76	3573.92
2502.14	3581.25
2503.52	3584.07
2504.9	3564.92
2506.28	3566.96
2507.66	3528.44
2509.04	3542.58
2510.42	3576.42
2511.8	3560.51
2513.18	3537.68
2514.56	3524.91
2515.94	3523.46
2517.31	3521.17
2518.69	3499.29
2520.07	3522.24
2521.45	3524.89
2522.82	3510.29
2524.2	3496.52
2525.58	3514.43
2526.96	3492.88
2528.33	3514.07
2529.71	3498.45
2531.09	3505.58
2532.46	3498.3
2533.84	3487.4
2535.21	3465.4
2536.59	3487.93
2537.96	3459.98
2539.34	3466.14
2540.71	3467.34
2542.08	3448.12
2543.46	3463.52
2544.83	3435.57
2546.2	3444.72
2547.58	3444.48
2548.95	3433.96
2550.32	3436.42
2551.7	3409.47
2553.07	3407.41
2554.44	3407.16
2555.81	3410.14
2557.18	3410.3
2558.55	3415.08
2559.92	3401.49
2561.29	3389.47
2562.66	3386.64
2564.03	3396.03
2565.4	3381.09
2566.77	3382.36
2568.14	3379.11
2569.51	3378.88
2570.88	3355.89
2572.25	3363.88
2573.62	3370.04
2574.99	3355.86
2576.35	3359.83
2577.72	3360.45
2579.09	3354.67
2580.46	3344.67
2581.82	3351.31
2583.19	3368.39
2584.56	3355.41
2585.92	3348.58
2587.29	3321.94
2588.65	3328.63
2590.02	3341.93
2591.38	3323.71
2592.75	3331.35
2594.11	3328.69
2595.48	3345.16
2596.84	3328.98
2598.21	3312.83
2599.57	3335.48
2600.93	3323.83
2602.3	3315.24
2603.66	3303.57
2605.02	3286.98
2606.39	3298.94
2607.75	3306.11
2609.11	3304.29
2610.47	3286.04
2611.83	3296.29
2613.19	3294.74
2614.56	3275.44
2615.92	3285.67
2617.28	3262.73
2618.64	3263.55
2620	3281.27
2621.36	3271.49
2622.72	3255.81
2624.08	3261.88
2625.44	3263.97
2626.8	3288.77
2628.15	3256.88
2629.51	3233.55
2630.87	3248.97
2632.23	3252.85
2633.59	3238.29
2634.94	3243.67
2636.3	3256.8
2637.66	3212.61
2639.01	3230.97
2640.37	3211.92
2641.73	3228.93
2643.08	3220.5
2644.44	3225.86
2645.79	3221.44
2647.15	3201.32
2648.5	3212.3
2649.86	3209.5
2651.21	3217.57
2652.57	3201.11
2653.92	3193.55
2655.28	3204.85
2656.63	3189.32
2657.98	3198.1
2659.33	3191.14
2660.69	3197.75
2662.04	3201.77
2663.39	3192.3
2664.75	3193.26
2666.1	3201.63
2667.45	3186.47
2668.8	3190.78
2670.15	3167.06
2671.5	3181.09
2672.85	3163.1
2674.2	3182.61
2675.55	3168.27
2676.9	3167.41
2678.25	3161.03
2679.6	3166.7
2680.95	3163.95
2682.3	3146.55
2683.65	3119.93
2685	3128.9
2686.35	3143.63
2687.7	3142.64
2689.04	3129.94
2690.39	3145.57
2691.74	3143.67
2693.09	3133.1
2694.43	3117.98
2695.78	3124.84
2697.13	3112.52
2698.47	3106.47
2699.82	3117.97
2701.16	3125.18
2702.51	3129.65
2703.85	3108.51
2705.2	3128.09
2706.54	3117.54
2707.89	3104.73
2709.23	3109.32
2710.58	3117.91
2711.92	3112.3
2713.26	3113.59
2714.61	3098.75
2715.95	3112.46
2717.29	3115.04
2718.64	3105.29
2719.98	3103.76
2721.32	3112.82
2722.66	3092.98
2724	3080.56
2725.35	3101.38
2726.69	3086.95
2728.03	3074.56
2729.37	3082.02
2730.71	3089
2732.05	3088.93
2733.39	3068.43
2734.73	3041.08
2736.07	3044.25
2737.41	3035.64
2738.75	3025.35
2740.09	3021.71
2741.42	3021.48
2742.76	3011.79
2744.1	2995.64
2745.44	3008.49
2746.78	3003.31
2748.11	2986.36
2749.45	2985.16
2750.79	2979.79
2752.12	2984.64
2753.46	2950.07
2754.8	2966.79
2756.13	2937.44
2757.47	2962.38
2758.81	2955.85
2760.14	2978
2761.47	2957.98
2762.81	2949.63
2764.14	2945.7
2765.48	2932.87
2766.81	2932.39
2768.15	2927.36
2769.48	2919.43
2770.81	2927.18
2772.15	2938.1
2773.48	2939.92
2774.81	2921.76
2776.14	2911.75
2777.48	2898.4
2778.81	2924.5
2780.14	2903.15
2781.47	2896.66
2782.8	2887.15
2784.13	2882.82
2785.47	2872.35
2786.8	2863.69
2788.13	2856.99
2789.46	2879.1
2790.79	2877.66
2792.12	2861
2793.44	2876.94
2794.77	2864.38
2796.1	2885.64
2797.43	2876.46
2798.76	2865.51
2800.09	2860.78
2801.42	2876.15
2802.74	2856.08
2804.07	2873.59
2805.4	2851.29
2806.73	2848.77
2808.05	2844.32
2809.38	2850.45
2810.71	2848.59
2812.03	2848.73
2813.36	2860.61
2814.68	2875.14
2816.01	2873.65
2817.33	2868.26
2818.66	2858.38
2819.98	2857.97
2821.31	2878.93
2822.63	2886.91
2823.96	2875.76
2825.28	2872.11
2826.6	2888.49
2827.93	2884.48
2829.25	2917.71
2830.57	2915.11
2831.9	2952.04
2833.22	2950.43
2834.54	2996.34
2835.86	3026.84
2837.19	3080.37
2838.51	3126.74
2839.83	3207.15
2841.15	3276.16
2842.47	3377.78
2843.79	3462.6
2845.11	3611.94
2846.43	3684.2
2847.75	3770.37
2849.07	3811.59
2850.39	3839.76
2851.71	3841.92
2853.03	3821.57
2854.35	3780.54
2855.66	3758.46
2856.98	3741.85
2858.3	3676.73
2859.62	3661.73
2860.94	3655.59
2862.25	3624.37
2863.57	3602.94
2864.89	3627.11
2866.2	3625.75
2867.52	3616.44
2868.84	3662.07
2870.15	3671.95
2871.47	3708.37
2872.78	3731.43
2874.1	3749.92
2875.41	3772.69
2876.73	3813.9
2878.04	3829.98
2879.36	3829.99
2880.67	3868.53
2881.98	3862.03
2883.3	3842.81
2884.61	3882.51
2885.92	3854.27
2887.24	3891.55
2888.55	3865.96
2889.86	3880.76
2891.18	3878.03
2892.49	3880.58
2893.8	3849.38
2895.11	3849.83
2896.42	3856.22
2897.73	3856.07
2899.04	3846.97
2900.35	3855.44
2901.67	3851.3
2902.97	3834.73
2904.29	3813.86
2905.59	3812.74
2906.9	3794.21
2908.21	3817.38
2909.52	3807.71
2910.83	3801.88
2912.14	3805.95
2913.45	3793.18
2914.76	3809.33
2916.06	3774.37
2917.37	3798.1
2918.68	3791.32
2919.99	3780.64
2921.29	3790.73
2922.6	3780.64
2923.91	3775.5
2925.21	3778.01
2926.52	3782.75
2927.82	3783.23
2929.13	3792.3
2930.44	3781.29
2931.74	3780.03
2933.05	3755.17
2934.35	3764.4
2935.65	3722.98
2936.96	3720.68
2938.26	3685.01
2939.57	3657.09
2940.87	3601.73
2942.17	3531.04
2943.48	3478.91
2944.78	3439.74
2946.08	3367.98
2947.38	3354.99
2948.69	3303.91
2949.99	3289.55
2951.29	3272.45
2952.59	3250.18
2953.89	3232.05
2955.19	3236.87
2956.49	3243.79
2957.8	3194.13
2959.1	3194.78
2960.4	3189.21
2961.7	3140.55
2962.99	3136.6
2964.29	3114.4
2965.59	3105.34
2966.89	3082.84
2968.19	3068.89
2969.49	3038.66
2970.79	3018.64
2972.09	3005.13
2973.38	2972.29
2974.68	2968.85
2975.98	2964.88
2977.28	2941.13
2978.57	2923.03
2979.87	2906.54
2981.17	2899.03
2982.46	2900.81
2983.76	2879.79
2985.05	2863.8
2986.35	2856.47
2987.65	2835.71
2988.94	2821.82
2990.24	2819.55
2991.53	2820.28
2992.82	2832.25
2994.12	2813.42
2995.41	2817.88
2996.71	2806.25
2998	2788.64
2999.29	2788.84
3000.59	2802.23
3001.88	2785.29
3003.17	2775.84
3004.47	2772.92
3005.76	2767.09
3007.05	2768.28
3008.34	2764.85
3009.63	2749.97
3010.92	2750.44
3012.21	2738.61
3013.5	2718.43
3014.8	2732.74
3016.09	2728.79
3017.38	2717.98
3018.67	2696.07
3019.96	2712.58
3021.25	2704.76
3022.54	2699.26
3023.82	2704.03
3025.11	2705.36
3026.4	2702.86
3027.69	2678.78
3028.98	2683.13
3030.27	2686.24
3031.55	2686.06
3032.84	2678.21
3034.13	2698.75
3035.42	2691.5
3036.7	2683.6
3037.99	2702.64
3039.28	2705.99
3040.56	2685.79
3041.85	2693.7
3043.13	2715.95
3044.42	2704.89
3045.7	2710.84
3046.99	2709.66
3048.27	2701.19
3049.56	2739.28
3050.84	2743.03
3052.13	2732.25
3053.41	2748.37
3054.69	2750.38
3055.98	2756.92
3057.26	2764.94
3058.54	2755.53
3059.83	2756.25
3061.11	2775.04
3062.39	2774.36
3063.67	2776.41
3064.95	2776.21
3066.24	2789.72
3067.52	2784.43
3068.8	2790.35
3070.08	2794.09
3071.36	2810.3
3072.64	2795.56
3073.92	2804.75
3075.2	2812.54
3076.48	2812.63
3077.76	2816.28
3079.04	2813.38
3080.32	2809.65
3081.6	2815.11
3082.88	2816.36
3084.16	2834.57
3085.44	2834.23
3086.71	2843.19
3087.99	2845.76
3089.27	2861.58
3090.55	2847.09
3091.82	2842.22
3093.1	2870.29
3094.38	2871.18
3095.65	2871.77
3096.93	2869.53
3098.21	2894.12
3099.48	2879.48
3100.76	2909.12
3102.03	2894.71
3103.31	2919.99
3104.58	2930.06
3105.86	2925.76
3107.13	2954.26
3108.41	2967.35
3109.68	2967.67
3110.96	2957.34
3112.23	2999.85
3113.5	2989.94
3114.78	2994.13
3116.05	2993.85
3117.32	3018.16
3118.59	3035.16
3119.87	3012.26
3121.14	3037.49
3122.41	3056.44
3123.68	3059.26
3124.95	3049.06
3126.23	3089.33
3127.5	3082.26
3128.77	3098.94
3130.04	3106.47
3131.31	3130.63
3132.58	3125.92
3133.85	3143.5
3135.12	3170.9
3136.39	3164.38
3137.66	3164.47
3138.93	3182.4
3140.2	3178.38
3141.46	3192.43
3142.73	3191.54
3144	3222.9
3145.27	3208.32
3146.54	3241.71
3147.8	3250.58
3149.07	3274.36
3150.34	3266.62
3151.6	3274.77
3152.87	3293.82
3154.14	3304
3155.4	3304.87
3156.67	3304.5
3157.94	3318.38
3159.2	3333.44
3160.47	3343.64
3161.73	3347.86
3163	3364.01
3164.26	3350.74
3165.53	3380.76
3166.79	3392.72
3168.05	3378.46
3169.32	3389.32
3170.58	3381
3171.84	3400.13
3173.11	3400.08
3174.37	3390.72
3175.63	3396.94
3176.9	3399.9
3178.16	3384.62
3179.42	3408.38
3180.68	3413.96
3181.94	3405.76
3183.21	3419.52
3184.47	3422.65
3185.73	3421.86
3186.99	3424.52
3188.25	3425.29
3189.51	3413.1
3190.77	3423.59
3192.03	3417.82
3193.29	3431.57
3194.55	3418.66
3195.81	3426.25
3197.07	3420.51
3198.33	3439.8
3199.58	3426.43
3200.84	3425.05
3202.1	3423.63
3203.36	3434.12
3204.62	3435.7
3205.87	3429.24
3207.13	3440.13
3208.39	3434.64
3209.65	3418.96
3210.9	3422.98
3212.16	3415.85
3213.41	3424.95
3214.67	3417.34
3215.93	3417.24
3217.18	3405.45
3218.44	3418.38
3219.69	3414.92
3220.95	3411.21
3222.2	3400.02
3223.46	3400.11
3224.71	3396.39
3225.97	3397.04
3227.22	3407.53
3228.47	3396.32
3229.73	3403.06
3230.98	3396.4
3232.23	3382.23
3233.48	3395.31
3234.74	3384.22
3235.99	3373.69
3237.24	3376.28
3238.49	3378.57
3239.75	3370.16
3241	3361.34
3242.25	3354.56
3243.5	3357.31
3244.75	3354.67
3246	3357.83
3247.25	3345.7
3248.5	3332.99
3249.75	3345.73
3251	3348.59
3252.25	3332.41
3253.5	3317.28
3254.75	3320.87
3256	3319
3257.25	3303.68
3258.49	3295.38
3259.74	3286.29
3260.99	3288.94
3262.24	3276.54
3263.49	3266.27
3264.73	3271.89
3265.98	3274.87
3267.23	3262.64
3268.47	3275.06
3269.72	3267.35
3270.97	3264.25
3272.21	3261.97
3273.46	3259.94
3274.7	3245.89
3275.95	3246.59
3277.2	3236.76
3278.44	3238.56
3279.69	3237.28
3280.93	3232.02
3282.17	3225.32
3283.42	3214.38
3284.66	3213.61
3285.91	3214.69
3287.15	3206.75
3288.39	3206.98
3289.64	3208.59
3290.88	3190.74
3292.12	3182.77
3292.31	3178.96
3293.56	3179.34
3294.8	3165.98
3296.05	3179.32
3297.3	3205.37
3298.55	3171.24
3299.79	3168.1
3301.04	3169.36
3302.29	3154.75
3303.54	3161.47
3304.78	3153.88
3306.03	3165.79
3307.27	3155.1
3308.52	3166.83
3309.76	3159.4
3311.01	3143.08
3312.26	3159.3
3313.5	3136.25
3314.75	3139.39
3315.99	3130.82
3317.23	3137.78
3318.48	3138.63
3319.72	3127.36
3320.97	3142.61
3322.21	3131.19
3323.45	3136.96
3324.7	3132.33
3325.94	3140.33
3327.18	3111.54
3328.42	3131.91
3329.67	3108.11
3330.91	3114.69
3332.15	3123.66
3333.39	3122.57
3334.63	3116.01
3335.87	3125.98
3337.12	3109.84
3338.36	3105.96
3339.6	3108.83
3340.84	3110.96
3342.08	3100.24
3343.32	3109.46
3344.56	3092.67
3345.8	3085.99
3347.04	3105.92
3348.27	3094.84
3349.51	3102.3
3350.75	3097.68
3351.99	3081.61
3353.23	3084.31
3354.47	3081.97
3355.7	3056.93
3356.94	3072.63
3358.18	3083.51
3359.42	3081.94
3360.65	3077.68
3361.89	3070.01
3363.13	3072.78
3364.36	3075.06
3365.6	3057.77
3366.83	3057.79
3368.07	3078.64
3369.31	3071.77
3370.54	3060.16
3371.78	3077.9
3373.01	3062.4
3374.25	3074.75
3375.48	3072.39
3376.71	3059.75
3377.95	3069.29
3379.18	3056.91
3380.42	3059.18
3381.65	3067.37
3382.88	3062.71
3384.12	3051.78
3385.35	3040.55
3386.58	3045.77
3387.81	3032.33
3389.04	3050.92
3390.28	3028.43
3391.51	3032.01
3392.74	3037.76
3393.97	3045.85
3395.2	3011.29
3396.43	3031.7
3397.67	3025.46
3398.9	3029.05
3400.13	3017.03
3401.36	3037.93
3402.58	3023.92
3403.82	3014.26
3405.05	3025.96
3406.27	3010.64
3407.5	3017.02
3408.73	2995.17
3409.96	3012.27
3411.19	2999.99
3412.42	2992.95
3413.64	3003.35
3414.87	2981.95
3416.1	2982.17
3417.33	2981.99
3418.55	2964.74
3419.78	2974.07
3421.01	2984.71
3422.23	2968.71
3423.46	2965.66
3424.69	2947.23
3425.91	2945.31
3427.14	2932.88
3428.36	2940.41
3429.59	2934.53
3430.81	2937.97
3432.04	2931.21
3433.26	2910.71
3434.49	2915.97
3435.71	2914.99
3436.94	2914.23
3438.16	2895.8
3439.39	2894.37
3440.61	2898.33
3441.83	2884.45
3443.05	2878.88
3444.28	2865.67
3445.5	2869.51
3446.72	2851.78
3447.95	2844.17
3449.17	2819.52
3450.39	2833.64
3451.61	2811.25
3452.83	2828.75
3454.05	2823.91
3455.27	2816.66
3456.5	2823.68
3457.71	2798.49
3458.94	2799.68
3460.16	2781.3
3461.38	2782.41
3462.59	2762.16
3463.81	2760.53
3465.03	2762.47
3466.25	2741.98
3467.47	2745.95
3468.69	2732.63
3469.91	2733.54
3471.13	2723.56
3472.35	2692.97
3473.56	2684.37
3474.78	2686.21
3476	2682.16
3477.22	2670.95
3478.43	2663.38
3479.65	2643.69
3480.87	2640.37
3482.08	2638.8
3483.3	2621.67
3484.52	2606.49
3485.73	2604.32
3486.95	2595
3488.16	2578.08
3489.38	2576.74
3490.59	2563.46
3491.81	2564.4
3493.02	2549.5
3494.24	2532.65
3495.45	2537.37
3496.67	2513.96
3497.88	2508.78
3499.09	2480.36
