#Acq. time (s)=	10
#Accumulations=	10
#Range (cm-¹)=	400...3500
#Windows=	6
#Auto scanning=	Off
#Autofocus=	Off
#AutoExposure=	Off
#Spike filter=	Multiple accum.
#Delay time (s)=	0
#Binning=	1
#Readout mode=	Signal
#DeNoise=	Off
#ICS correction=	On
#Dark correction=	Off
#Inst. Process=	Off
#Detector Gain=	Best Dynamic Range
#Detector ADC=	45 kHz       
#Detector temperature (°C)=	-60.1
#Instrument=	LabRAM HR Evol
#Detector=	Syncerity OE
#Objective=	x50_VIS_LWD
#Grating=	600 (500nm)
#ND Filter=	100%
#Laser=	785nm_Edge
#Hole=	199.981
#Range=	Visible
#E-Cal_Neon=	0
#StageXY=	75x50mm Scan+
#StageZ=	Z motor
#X (µm)=	0
#Y (µm)=	0
#Z (µm)=	112.1
#Spectral res.(cm-¹)=	5.9
#Full time(mm:ss)=	10:39
#AC=	Calibrated 2025-06-30 10:26
#Project=	
#Sample=	
#Site=	
#Title=	D_101
#Remark=	
#Date=	30.06.2025 10:37 (India Standard Time)
#Acquired=	30.06.2025 10:37:34 (India Standard Time)
#AxisType[0]=Intens
#AxisUnit[0]=Cnt
#AxisType[1]=Spectr
#AxisUnit[1]=1/cm
400.049	470.4
400.828	457.969
401.608	469.46
402.386	477.782
403.164	475.438
403.943	460.691
404.722	470.239
405.5	476.565
406.278	464.956
407.056	464.679
407.834	482.801
408.612	471.486
409.39	473.865
410.167	462.567
410.945	457.872
411.722	463.407
412.499	463.128
413.277	460.039
414.054	462.938
414.831	459.879
415.608	458.601
416.385	462.56
417.162	451.418
417.938	459.665
418.715	457.899
419.491	457.211
420.267	456.917
421.043	449.022
421.819	457.222
422.595	453.51
423.371	453.643
424.147	454.845
424.923	438.766
425.698	449.085
426.474	455.333
427.249	450.344
428.024	453.794
428.799	459.38
429.574	445.16
430.349	452.356
431.124	454.944
431.899	456.642
432.674	448.145
433.448	449.031
434.223	452.575
434.996	447.668
435.771	445.811
436.545	445.895
437.319	444.868
438.093	444.703
438.867	444.111
439.64	439.838
440.413	443.009
441.187	444.007
441.96	439.517
442.734	440.428
443.507	449.13
444.279	440.473
445.053	443.12
445.826	440.481
446.598	434.115
447.37	436.059
448.143	431.015
448.916	432.3
449.688	438.148
450.46	442.444
451.232	437.568
452.004	433.818
452.776	438.864
453.548	443.352
454.32	428.3
455.091	436.218
455.862	431.489
456.634	427.156
457.405	427.131
458.176	437.103
458.947	424.532
459.718	425.514
460.489	430.236
461.259	425.361
462.03	430.11
462.8	416.024
463.571	423.544
464.341	421.173
465.111	416.802
465.882	417.023
466.651	431.923
467.422	422.623
468.191	423.461
468.961	412.793
469.73	408.318
470.5	419.23
471.269	415.729
472.038	416.626
472.807	413.787
473.576	412.464
474.345	407.377
475.114	402.042
475.883	414.525
476.651	401
477.419	406.405
478.188	405.391
478.956	410.084
479.725	407.024
480.493	409.251
481.261	403.095
482.029	408.033
482.796	401.314
483.564	394.878
484.332	391.815
485.099	390.777
485.866	396.184
486.633	398.242
487.401	394.25
488.168	394.204
488.935	391.204
489.702	381.014
490.469	386.616
491.235	389.076
492.001	378.141
492.767	382.848
493.535	379.767
494.301	378.724
495.066	378.368
495.832	379.799
496.598	383.444
497.365	375.62
498.13	379.614
498.896	379.751
499.661	371.574
500.426	375.272
501.191	374.274
501.956	369.925
502.721	374.994
503.487	371.085
504.252	373.655
505.017	372.609
505.781	372.658
506.546	379.419
507.31	377.443
508.074	378.63
508.839	376.72
509.603	372.614
510.367	379.984
511.131	367.197
511.894	373.037
512.658	373.934
513.422	364.93
514.185	384.416
514.949	384.109
515.712	371.194
516.475	378.925
517.239	366.874
518.002	363.352
518.765	368.357
519.527	367.062
520.289	370.47
521.052	370.947
521.815	370.754
522.577	375.753
523.339	356.339
524.102	361.25
524.863	365.574
525.625	366.6
526.387	365.418
527.149	356.132
527.911	360.561
528.673	360.237
529.433	358.092
530.195	360.007
530.956	358.312
531.718	361.586
532.478	356.701
533.239	354.949
534	355.207
534.761	356.817
535.521	350.972
536.282	356.961
537.043	348.027
537.802	360.003
538.563	354.248
539.323	350.018
540.083	343.428
540.843	344.046
541.603	347.135
542.362	346.599
543.122	346.807
543.881	338.439
544.641	338.339
545.4	339.193
546.159	337.077
546.918	334.012
547.677	334.099
548.436	337.811
549.194	336.249
549.953	339.968
550.712	332.261
551.47	329.608
552.229	330.613
552.987	326.284
553.746	330.826
554.503	321.73
555.262	325.893
556.019	329.124
556.776	325.278
557.534	319.434
558.292	321.92
559.05	318.696
559.807	326.252
560.564	323.415
561.321	321.658
562.078	323.3
562.835	320.794
563.592	315.097
564.348	321.158
565.105	311.409
565.861	315.006
566.618	319.979
567.374	315.737
568.13	318.129
568.886	317.05
569.643	316.189
570.398	316.94
571.154	325.517
571.91	324.233
572.666	315.147
573.421	315.249
574.176	319.7
574.932	323.205
575.687	312.677
576.442	323.742
577.197	324.494
577.951	325.3
578.707	316.726
579.461	327.684
580.216	314.95
580.97	311.136
581.724	323.378
582.478	314.252
583.233	322.17
583.987	317.749
584.741	323.743
585.495	317.829
586.248	325.5
587.002	321.644
587.755	322.821
588.509	328.356
589.262	320.521
590.015	325.388
590.768	324.508
591.521	323.86
592.274	325.029
593.027	324.523
593.78	333.198
594.533	321.265
595.285	322.513
596.038	331.448
596.79	328.229
597.542	333.205
598.294	338.03
599.046	337.095
599.798	328.48
600.55	333.048
601.302	333.175
602.054	333.997
602.805	338.112
603.557	332.742
604.307	335.579
605.059	345.464
605.81	337.137
606.561	339.995
607.312	336.95
608.063	336.661
608.813	333.984
609.564	337.619
610.315	342.192
611.065	342.782
611.816	330.916
612.565	323.049
613.315	320.125
614.066	320.259
614.816	312.349
615.565	320.691
616.315	318.842
617.065	316.241
617.813	314.314
618.563	314.737
619.313	320.844
620.062	320.118
620.811	322.507
621.56	313.569
622.308	325.506
623.057	325.613
623.806	306.487
624.554	314.375
625.303	319.845
626.052	312.67
626.8	312.568
627.548	302.208
628.296	305.362
629.044	306.35
629.792	295.905
630.54	296.583
631.287	304.097
632.035	304.694
632.783	309.792
633.53	301.192
634.277	302.622
635.024	296.089
635.771	299.093
636.518	301.643
637.265	299.893
638.012	305.178
638.758	298.783
639.505	300.871
640.251	304.616
640.998	310.53
641.744	314.61
642.49	307.384
643.237	311.056
643.982	314.954
644.728	322.135
645.474	316.519
646.219	315.394
646.965	299.862
647.711	300.92
648.456	309.816
649.201	304.307
649.946	303.061
650.691	306.065
651.436	297.921
652.182	291.879
652.926	292.675
653.67	293.927
654.415	292.58
655.159	294.1
655.904	298.065
656.648	293.361
657.392	294.892
658.136	298.846
658.88	289.29
659.624	290.392
660.368	288.136
661.111	289.417
661.855	279.021
662.598	288.393
663.341	281.575
664.085	281.67
664.829	294.167
665.572	294.701
666.314	290.655
667.057	277.967
667.8	282.485
668.542	281.046
669.285	285.64
670.027	280.959
670.77	282.565
671.512	276.531
672.254	282.988
672.996	278.609
673.738	274.659
674.48	283.19
675.222	274.589
675.963	279.005
676.705	268.481
677.447	274.155
678.188	276.954
678.929	276.848
679.67	271.148
680.412	278.01
681.152	282.421
681.893	267.157
682.634	277.589
683.374	274.411
684.115	270.964
684.856	281.821
685.596	275.647
686.336	268.485
687.076	265.213
687.816	261.233
688.556	265.068
689.296	271.862
690.035	269.202
690.775	264.593
691.515	262.633
692.255	269.879
692.993	274.643
693.733	264.031
694.472	270.471
695.212	268.17
695.95	272.483
696.689	276.337
697.428	269.225
698.166	269.407
698.905	281.034
699.644	269.973
700.382	273.807
701.12	274.497
701.858	278.377
702.596	278.095
703.335	282.654
704.072	275.918
704.81	271.088
705.547	284.069
706.285	276.807
707.023	278.388
707.76	282.226
708.498	272.675
709.234	280.24
709.972	286.583
710.709	279.707
711.446	280.392
712.182	282.291
712.919	289.084
713.656	279.733
714.393	285.566
715.128	285.778
715.864	298.979
716.601	283.02
717.337	291.055
718.073	288.523
718.809	290.374
719.544	299.563
720.281	295.515
721.016	290.025
721.752	294.884
722.487	300.045
723.222	296.411
723.958	305.311
724.693	302.645
725.427	297.473
726.162	295.446
726.897	294.125
727.632	288.87
728.366	295.956
729.101	290.819
729.836	307.701
730.57	293.646
731.304	295.69
732.039	298.765
732.772	286.722
733.506	299.876
734.24	290.901
734.973	289.289
735.707	292.335
736.441	290.866
737.174	291.357
737.908	285.365
738.641	291.302
739.374	293.756
740.107	292.977
740.84	284.236
741.573	296.178
742.306	298.426
743.038	294.961
743.771	288.277
744.503	294.095
745.236	290.208
745.968	287.079
746.7	294.693
747.432	295.274
748.164	289.291
748.896	293.771
749.628	291.206
750.359	289.14
751.091	283.594
751.822	294.387
752.554	286.658
753.285	295.996
754.016	299.787
754.747	298.246
755.478	290.858
756.209	282.661
756.94	297.292
757.67	299.854
758.401	295.395
759.132	300.247
759.862	305.374
760.592	295.464
761.322	299.144
762.052	293.811
762.783	301.058
763.513	288.96
764.242	293.68
764.972	294.842
765.702	298.723
766.431	291.25
767.161	297.832
767.89	292.354
768.619	296.197
769.348	298.814
770.077	289.15
770.806	292.326
771.535	287.981
772.263	283.402
772.992	292.672
773.721	290.645
774.449	286.861
775.178	290.612
775.906	286.522
776.634	289.678
777.362	280.944
778.09	282.744
778.818	286.544
779.546	277.782
780.273	277.367
781.001	285.054
781.728	285.742
782.456	279.914
783.183	285.928
783.91	284.134
784.637	278.047
785.364	286.063
786.091	274.173
786.818	282.213
787.544	276.164
788.271	284.285
788.997	284.883
789.724	282.99
790.45	289.203
791.177	285.037
791.903	285.645
792.628	283.164
793.355	275.054
794.08	278.565
794.806	295.243
795.532	281.98
796.257	285.973
796.983	279.326
797.708	289.712
798.433	286.925
799.158	290.766
799.884	286.234
800.608	283.477
801.333	294.453
802.058	288.118
802.783	290.697
803.507	298.654
804.231	294.423
804.956	300.706
805.681	302.707
806.404	304.238
807.128	303.989
807.852	314.233
808.577	307.278
809.3	314.911
810.024	312.247
810.747	315.461
811.471	317.098
812.194	321.779
812.917	327.957
813.641	327.394
814.364	322.424
815.087	327.76
815.81	327.72
816.533	329.796
817.256	335.283
817.978	336.685
818.701	339.65
819.423	348.034
820.145	351.757
820.868	346.938
821.59	362.312
822.312	349.245
823.034	353.554
823.756	362.555
824.478	360.399
825.199	374.568
825.921	378.31
826.642	378.367
827.364	394.775
828.084	378.667
828.806	383.636
829.527	393.312
830.248	386.337
830.969	390.551
831.69	399.949
832.411	401.749
833.131	411.072
833.851	406.301
834.572	412.497
835.292	405.958
836.013	417.482
836.732	417.846
837.452	430.53
838.173	423.379
838.893	421.703
839.612	423.137
840.332	444.433
841.051	428.254
841.771	426.171
842.49	436.369
843.209	441.048
843.929	438.387
844.647	448.063
845.367	451.218
846.086	452.309
846.804	450.533
847.523	449.281
848.242	439.078
848.96	459.834
849.679	467.433
850.397	467.399
851.115	464.999
851.833	456.028
852.551	467.022
853.269	466.405
853.987	466.77
854.705	458.646
855.422	468.089
856.14	457.828
856.857	468.143
857.575	455.208
858.292	466.081
859.009	462.371
859.726	465.583
860.443	464.333
861.16	460.665
861.876	465.363
862.594	469.203
863.31	475.111
864.027	484.167
864.743	483.166
865.459	476.581
866.176	481.044
866.892	496.806
867.607	487.902
868.324	483.719
869.039	486.158
869.755	492.891
870.471	504.748
871.186	495.818
871.901	487.482
872.617	482.875
873.333	488.057
874.047	495.074
874.762	487.497
875.477	495.569
876.193	491.472
876.907	477.858
877.622	493.235
878.336	487.663
879.051	474.911
879.765	480.772
880.48	483.947
881.194	469.75
881.908	474.689
882.622	472.629
883.336	466.508
884.049	466.746
884.763	472.558
885.477	466.068
886.19	460.367
886.904	473.887
887.618	472.176
888.331	477.14
889.044	484.518
889.757	493.525
890.47	478.266
891.183	482.3
891.896	478.101
892.609	479.813
893.321	465.993
894.034	458.528
894.745	458.459
895.458	445.163
896.17	443.827
896.882	436.568
897.594	429.076
898.306	424.882
899.018	420.804
899.73	409.871
900.442	407.821
901.154	404.965
901.864	401.519
902.576	401.484
903.287	398.975
903.999	392.688
904.71	390.964
905.42	374.257
906.131	376.335
906.842	374.932
907.553	372.977
908.263	380.652
908.974	381.336
909.685	369.148
910.395	371.193
911.105	374.068
911.815	361.941
912.525	370.483
913.235	370.71
913.945	372.827
914.655	371.752
915.364	383.627
916.074	377.577
916.784	376.7
917.493	367.787
918.202	368.019
918.911	369.281
919.621	379.635
920.33	385.858
921.038	369.343
921.748	376.279
922.456	366.769
923.165	377.831
923.873	378.157
924.582	373.117
925.29	364.288
925.998	369.748
926.706	356.748
927.415	343.961
928.122	350.099
928.831	355.183
929.538	353.838
930.245	357.721
930.954	351.105
931.661	331.216
932.369	341.426
933.076	339.38
933.783	347.874
934.49	345.179
935.197	346.269
935.904	338.127
936.611	338.746
937.318	336.998
938.024	329.068
938.731	334.571
939.438	328.92
940.144	322.693
940.85	323.504
941.557	328.32
942.262	332.195
942.968	324.175
943.674	326.777
944.38	320.593
945.086	312.804
945.792	316.89
946.497	313.41
947.202	325.147
947.907	333.99
948.613	316.783
949.318	326.019
950.023	320.363
950.728	308.012
951.433	324.878
952.138	314.844
952.843	319.122
953.547	313.091
954.252	310.896
954.956	320.049
955.66	304.254
956.365	307.349
957.069	304.112
957.773	308.978
958.477	305.821
959.181	311.837
959.885	298.873
960.588	307.53
961.292	300.468
961.995	294.13
962.699	310.554
963.402	300.222
964.105	293.821
964.808	292.21
965.512	287.323
966.215	287.483
966.918	295.725
967.62	299.509
968.322	289.647
969.025	280.619
969.728	294.15
970.43	277.392
971.133	284.338
971.834	287.989
972.536	289.994
973.239	280.008
973.941	287.559
974.643	288.663
975.344	273.828
976.046	288.548
976.748	282.596
977.448	288.902
978.15	279.261
978.852	276.831
979.552	276.582
980.254	270.439
980.955	280.74
981.655	276.565
982.356	268.264
983.057	279.803
983.757	273.831
984.458	273.725
985.159	280.576
985.859	279.885
986.56	273.058
987.259	271.823
987.96	267.566
988.659	264.754
989.359	265.055
990.059	271.522
990.759	268.783
991.458	273.571
992.158	267.45
992.857	268.028
993.557	265.535
994.256	287.952
994.955	274.839
995.654	281.862
996.353	274.567
997.052	277.585
997.75	276.626
998.45	289.628
999.148	283.826
999.846	292.021
1000.54	301.91
1001.24	314.634
1001.94	325.454
1002.64	346.71
1003.34	367.496
1004.04	371.835
1004.73	376.813
1005.43	352.376
1006.13	347.909
1006.83	336.165
1007.52	316.547
1008.22	304.529
1008.92	302.386
1009.62	309.293
1010.31	297.516
1011.01	314.885
1011.71	303.584
1012.4	301.869
1013.1	311.755
1013.8	308.791
1014.49	304.057
1015.19	304.109
1015.89	310.11
1016.58	307.268
1017.28	301.025
1017.97	306.525
1018.67	308.383
1019.37	314.585
1020.06	305.098
1020.76	304.177
1021.45	311.251
1022.15	311.72
1022.84	313.628
1023.54	307.544
1024.24	308.14
1024.93	298.761
1025.63	308.749
1026.32	314.764
1027.02	312.67
1027.71	321.486
1028.41	325.282
1029.1	325.496
1029.79	332.879
1030.49	322.511
1031.18	331.3
1031.88	318.625
1032.57	329.837
1033.27	325.112
1033.96	331.19
1034.65	322.404
1035.35	329.906
1036.04	325.389
1036.73	330.458
1037.43	327.323
1038.12	344.372
1038.81	328.403
1039.51	339.087
1040.2	326.353
1040.89	326.187
1041.59	323.636
1042.28	324.864
1042.97	331.361
1043.67	342.57
1044.36	326.779
1045.05	336.558
1045.74	339.275
1046.44	334.594
1047.13	335.146
1047.82	323.283
1048.51	329.938
1049.2	337.5
1049.9	336.592
1050.59	341.651
1051.28	329.092
1051.97	341.29
1052.66	348.721
1053.35	359.29
1054.05	348.496
1054.74	354.423
1055.43	359.72
1056.12	362.087
1056.81	379.239
1057.5	375.805
1058.19	382.984
1058.88	408.382
1059.57	412.799
1060.26	417.751
1060.95	444.172
1061.64	445.332
1062.34	464.821
1063.03	461.486
1063.71	489.74
1064.41	477.792
1065.1	480.338
1065.78	461.731
1066.47	479.398
1067.16	459.313
1067.85	435.314
1068.54	432.178
1069.23	427.463
1069.92	431.821
1070.61	423.418
1071.3	415.294
1071.99	421.36
1072.68	416.505
1073.37	421.103
1074.06	431.292
1074.74	445.279
1075.43	443.85
1076.12	443.756
1076.81	457.636
1077.5	451.23
1078.19	454.353
1078.87	458.686
1079.56	454.685
1080.25	460.624
1080.94	464.377
1081.63	451.659
1082.31	462.107
1083	449.829
1083.69	440.309
1084.38	441.87
1085.06	427.348
1085.75	432.51
1086.44	429.803
1087.12	423.291
1087.81	419.515
1088.5	413.793
1089.18	403.71
1089.87	396.824
1090.56	394.251
1091.24	393.38
1091.93	379.066
1092.62	373.985
1093.3	358.835
1093.99	360.652
1094.67	347.68
1095.36	350.176
1096.05	341.381
1096.73	343.727
1097.42	328.684
1098.1	327.434
1098.79	315.462
1099.47	313.815
1100.16	309.213
1100.84	301.658
1101.53	295.895
1102.22	303.739
1102.9	283.355
1103.58	288.944
1104.27	284.246
1104.95	284.938
1105.64	272.396
1106.32	274.666
1107.01	271.294
1107.69	263.891
1108.38	272.404
1109.06	266.044
1109.74	264.63
1110.43	261.204
1111.11	267.501
1111.8	265.888
1112.48	265.314
1113.16	263.113
1113.85	262.523
1114.53	271.045
1115.21	271.069
1115.9	268.527
1116.58	279.835
1117.26	277.346
1117.95	280.412
1118.63	282.253
1119.31	283.21
1119.99	284.373
1120.68	289.037
1121.36	287.803
1122.04	295.318
1122.72	291.242
1123.41	292.28
1124.09	291.52
1124.77	290.356
1125.45	293.039
1126.13	290.623
1126.82	291.258
1127.5	287.773
1128.18	290.631
1128.86	283.656
1129.54	278.154
1130.22	270.874
1130.91	265.665
1131.59	251.353
1132.27	249.376
1132.95	247.218
1133.63	241.304
1134.31	231.641
1134.99	230.163
1135.67	230.314
1136.35	222.916
1137.03	223.598
1137.71	217.616
1138.39	218.454
1139.07	218.837
1139.75	222.178
1140.43	224.565
1141.11	222.038
1141.79	217.411
1142.47	223.208
1143.15	221.507
1143.83	220.838
1144.51	217.818
1145.08	221.506
1145.76	223.362
1146.44	222.147
1147.13	230.533
1147.81	220.381
1148.49	217.035
1149.18	222.968
1149.86	227.338
1150.54	230.128
1151.23	218.942
1151.91	220.741
1152.59	229.039
1153.27	216.605
1153.95	226.823
1154.64	224.395
1155.32	223.255
1156	228.356
1156.68	230.994
1157.36	231.139
1158.05	227.522
1158.73	221.997
1159.41	227.028
1160.09	224.878
1160.77	228.957
1161.45	219.638
1162.14	226.542
1162.82	222.535
1163.5	219.773
1164.18	217.626
1164.86	224.842
1165.54	217.058
1166.22	225.843
1166.9	219.63
1167.58	220.622
1168.26	207.848
1168.94	206.963
1169.62	221.112
1170.3	213.942
1170.98	207.699
1171.66	210.548
1172.34	212.465
1173.02	210.321
1173.7	204.431
1174.38	218.368
1175.06	217.869
1175.74	210.439
1176.42	219.687
1177.1	215.355
1177.78	211.62
1178.46	212.915
1179.14	212.946
1179.82	216.778
1180.5	210.83
1181.17	218.481
1181.85	203.355
1182.53	206.875
1183.21	220.512
1183.89	199.937
1184.57	198.671
1185.25	205.96
1185.92	210.09
1186.6	201.864
1187.28	210.446
1187.96	203.494
1188.64	209.557
1189.31	204.205
1189.99	206.481
1190.67	208.765
1191.35	209.78
1192.02	213.02
1192.7	216.258
1193.38	201.028
1194.06	204.589
1194.73	196.053
1195.41	210.172
1196.09	212.511
1196.76	211.02
1197.44	206.638
1198.12	210.545
1198.79	214.106
1199.47	214.442
1200.15	210.915
1200.82	210.583
1201.5	211.534
1202.17	220.182
1202.85	217.948
1203.53	213.796
1204.2	218.297
1204.88	214.135
1205.55	224.392
1206.23	216.03
1206.9	225.292
1207.58	226.839
1208.26	210.419
1208.93	223.511
1209.61	218.986
1210.28	219.625
1210.96	222.228
1211.63	218.768
1212.31	218.213
1212.98	219.261
1213.66	220.931
1214.33	212.274
1215	217.735
1215.68	210.949
1216.35	208.341
1217.03	220.229
1217.7	213.154
1218.38	212.213
1219.05	226.738
1219.72	217.739
1220.4	210.963
1221.07	226.715
1221.74	224.401
1222.42	224.99
1223.09	223.994
1223.76	214.983
1224.44	226.002
1225.11	218.679
1225.78	213.946
1226.46	221.16
1227.13	225.46
1227.8	225.864
1228.47	225.607
1229.15	228.913
1229.82	224.457
1230.49	228.448
1231.16	226.951
1231.84	226.439
1232.51	236.651
1233.18	230.916
1233.85	224.154
1234.53	232.636
1235.2	228.375
1235.87	235.478
1236.54	236.727
1237.21	232.174
1237.88	243.319
1238.56	236.6
1239.23	228.251
1239.9	233.901
1240.57	241.132
1241.24	236.863
1241.91	243.971
1242.58	233.429
1243.25	235.647
1243.92	240.529
1244.59	242.205
1245.26	236.41
1245.93	246.65
1246.61	240.551
1247.28	244.605
1247.95	242.79
1248.62	252.167
1249.29	250.773
1249.96	255.984
1250.63	249.356
1251.3	247.299
1251.97	245.521
1252.64	237.747
1253.3	251.081
1253.97	253.492
1254.64	251.59
1255.31	254.969
1255.98	251.384
1256.65	247.128
1257.32	255.805
1257.99	252.245
1258.66	257.013
1259.33	261.814
1260	250.004
1260.66	265.087
1261.33	260.168
1262	256.191
1262.67	263.506
1263.34	261.853
1264.01	267.586
1264.67	262.407
1265.34	255.288
1266.01	253.874
1266.68	264.167
1267.34	258.383
1268.01	260.259
1268.68	271.503
1269.35	267.641
1270.02	249.328
1270.68	262.608
1271.35	257.404
1272.02	251.847
1272.68	255.025
1273.35	250.412
1274.02	249.8
1274.68	264.669
1275.35	266.33
1276.02	261.543
1276.68	260.789
1277.35	262.065
1278.02	246.152
1278.68	261.999
1279.35	257.301
1280.02	262.772
1280.68	256.452
1281.35	252.173
1282.01	248.913
1282.68	263.261
1283.34	252.896
1284.01	263.208
1284.68	259.288
1285.34	255.027
1286.01	255.172
1286.67	267.202
1287.34	265.598
1288	264.289
1288.67	269.409
1289.33	277.232
1290	272.797
1290.66	269.749
1291.33	277.979
1291.99	289.657
1292.66	282.939
1293.32	298.384
1293.98	296.74
1294.65	304.273
1295.31	308.699
1295.98	323.345
1296.64	332.174
1297.3	346.465
1297.97	345.054
1298.63	329.652
1299.3	352.169
1299.96	343.627
1300.62	339.548
1301.29	346.774
1301.95	346.861
1302.61	339.464
1303.28	337.91
1303.94	341.168
1304.6	349.912
1305.26	345.272
1305.93	340.562
1306.59	337.509
1307.25	332.366
1307.91	323.793
1308.58	329.317
1309.24	323.903
1309.9	307.877
1310.56	308.355
1311.23	304.354
1311.89	294.467
1312.55	295.884
1313.21	305.179
1313.87	297.589
1314.54	289.32
1315.2	287.625
1315.86	285.624
1316.52	290.887
1317.18	281.334
1317.84	285.563
1318.5	274.937
1319.17	272.927
1319.83	264.703
1320.49	269.279
1321.15	264.897
1321.81	269.88
1322.47	260.346
1323.13	254.97
1323.79	252.022
1324.45	262.959
1325.11	257.927
1325.77	266.439
1326.43	246.751
1327.09	251.044
1327.75	254.971
1328.41	256.098
1329.07	241.87
1329.73	251.007
1330.39	243.043
1331.05	242.751
1331.71	234.414
1332.37	238.996
1333.03	246.027
1333.69	233.834
1334.35	235.993
1335.01	239.927
1335.66	242.839
1336.32	241.919
1336.98	231.886
1337.64	245.01
1338.3	236.711
1338.96	235.77
1339.62	233.057
1340.28	233.859
1340.93	237.489
1341.59	234.793
1342.25	228.934
1342.91	236.139
1343.57	233.11
1344.22	237.498
1344.88	238.351
1345.54	235.668
1346.2	234.41
1346.85	224.644
1347.51	242.213
1348.17	226.023
1348.83	225.784
1349.48	236.54
1350.14	233.738
1350.8	229.135
1351.45	228.451
1352.11	229.206
1352.77	232.477
1353.43	231.839
1354.08	224.422
1354.74	213.427
1355.4	221.365
1356.05	227.535
1356.71	224.783
1357.36	224.903
1358.02	231.113
1358.68	221.178
1359.33	224.48
1359.99	217.71
1360.64	223.493
1361.3	223.546
1361.96	220.036
1362.61	224.469
1363.27	225.694
1363.92	218.992
1364.58	223.066
1365.23	232.148
1365.89	225.312
1366.54	227.822
1367.2	225.993
1367.85	215.156
1368.51	223.114
1369.16	222.8
1369.82	227.926
1370.47	226.923
1371.13	223.031
1371.78	217.688
1372.43	224.294
1373.09	223.662
1373.74	229.552
1374.4	217.646
1375.05	218.394
1375.7	216.569
1376.36	214.731
1377.01	223.077
1377.67	216.953
1378.32	211.983
1378.97	205.978
1379.63	211.658
1380.28	216.261
1380.93	206.6
1381.59	208.194
1382.24	203.88
1382.89	210.852
1383.54	209.38
1384.2	208.991
1384.85	202.38
1385.5	199.066
1386.16	205.275
1386.81	211.862
1387.46	209.311
1388.11	208.97
1388.76	209.742
1389.42	199.527
1390.07	211.676
1390.72	214.658
1391.37	205.884
1392.02	207.74
1392.68	204.081
1393.33	206.667
1393.98	213.311
1394.63	195.721
1395.28	205.362
1395.93	208.786
1396.58	207.819
1397.24	203.917
1397.89	198.909
1398.54	205.348
1399.19	211.789
1399.84	197.485
1400.49	205.348
1401.14	214.28
1401.79	212.413
1402.44	203.832
1403.09	207.833
1403.74	204.804
1404.39	210.329
1405.04	212.194
1405.69	206.314
1406.34	206.013
1406.99	210.906
1407.64	206.873
1408.29	212.842
1408.94	215.084
1409.59	215.841
1410.24	218.476
1410.89	210.355
1411.54	221.98
1412.19	216.884
1412.84	208.442
1413.49	221.637
1414.14	219.562
1414.79	223.481
1415.43	229.291
1416.08	218.626
1416.73	217.285
1417.38	232.779
1418.03	234.346
1418.68	226.86
1419.32	227.62
1419.97	228.775
1420.62	237.489
1421.27	240.608
1421.92	243.742
1422.57	244.594
1423.21	243.509
1423.86	246.132
1424.51	244.2
1425.16	247.925
1425.8	250.19
1426.45	259.312
1427.1	253.801
1427.75	260.031
1428.39	257.218
1429.04	268.392
1429.69	273.891
1430.33	256.264
1430.98	285.994
1431.63	294.48
1432.27	304.065
1432.92	317.402
1433.57	325.016
1434.21	339.866
1434.86	347.581
1435.51	344.771
1436.15	348.538
1436.8	371.05
1437.44	373.349
1438.09	393.496
1438.74	392.488
1439.38	395.935
1440.03	400.852
1440.67	407.32
1441.32	402.758
1441.96	397.466
1442.61	417.403
1443.26	392.528
1443.9	398.184
1444.55	397.674
1445.19	375.764
1445.84	377.246
1446.48	370.419
1447.13	372.113
1447.77	367.77
1448.41	375.737
1449.06	377.593
1449.7	367.533
1450.35	358.966
1450.99	370.745
1451.64	367.508
1452.28	348.848
1452.92	354.444
1453.57	353.489
1454.21	355.233
1454.86	340.365
1455.5	347.884
1456.14	343.797
1456.79	325.762
1457.43	349.893
1458.07	339.172
1458.72	338.883
1459.36	340.116
1460	332.012
1460.65	318.835
1461.29	326.581
1461.93	314.938
1462.58	309.905
1463.22	312.653
1463.86	316.584
1464.5	291.798
1465.15	297.677
1465.79	288.806
1466.43	288.113
1467.07	284.346
1467.72	279.84
1468.36	278.082
1469	269.703
1469.64	257.786
1470.28	272.38
1470.93	262.377
1471.57	255.508
1472.21	250.624
1472.85	244.206
1473.49	247.605
1474.13	242.363
1474.77	236.673
1475.42	239.171
1476.06	235.308
1476.7	223.517
1477.34	227.051
1477.98	220.731
1478.62	219.137
1479.26	212.814
1479.9	219.483
1480.54	206.84
1481.18	210.34
1481.82	198.481
1482.46	190.97
1483.1	201.605
1483.74	201.241
1484.38	196.957
1485.02	197.807
1485.66	197.863
1486.3	200.271
1486.94	197.526
1487.58	187.265
1488.22	189.257
1488.86	182.577
1489.5	192.932
1490.14	199.768
1490.78	187.212
1491.42	190.487
1492.06	186.99
1492.7	195.755
1493.34	186.626
1493.97	192.564
1494.61	174.288
1495.25	185.026
1495.89	189.85
1496.53	186.371
1497.17	178.939
1497.81	171.908
1498.45	191.185
1499.08	186.522
1499.72	185.01
1500.36	179.859
1501	180.266
1501.64	180.654
1502.27	180.644
1502.91	184.653
1503.55	187.096
1504.19	183.171
1504.82	174.057
1505.46	174.164
1506.1	181.085
1506.74	179.165
1507.37	175.623
1508.01	184.134
1508.65	181.389
1509.28	170.996
1509.92	175.099
1510.56	175.584
1511.19	175.262
1511.83	174.938
1512.47	179.866
1513.1	177.936
1513.74	175.208
1514.38	171.683
1515.01	175.454
1515.65	184.493
1516.28	178.081
1516.92	167.141
1517.56	178.478
1518.19	177.597
1518.83	166.162
1519.46	172.222
1520.1	178.346
1520.73	171.131
1521.37	174.932
1522.01	179.977
1522.64	169.113
1523.28	190.844
1523.91	181.535
1524.55	172.195
1525.18	169.793
1525.82	173.126
1526.45	176.48
1527.08	181.9
1527.72	179.955
1528.35	184.977
1528.99	175.218
1529.62	176.939
1530.26	180.708
1530.89	169.669
1531.53	181.24
1532.16	175.934
1532.79	183.381
1533.43	168.586
1534.06	175.634
1534.69	172.403
1535.33	172.085
1535.96	165.177
1536.6	174.797
1537.23	180.682
1537.86	170.38
1538.49	171.201
1539.13	171.989
1539.76	170.289
1540.39	170.273
1541.03	165.333
1541.66	175.356
1542.29	167.586
1542.93	170.607
1543.56	171.959
1544.19	167.47
1544.82	168.783
1545.46	163.004
1546.09	168.039
1546.72	169.733
1547.35	164.329
1547.98	162.664
1548.62	173.086
1549.25	173.083
1549.88	173.083
1550.51	167.244
1551.14	168.081
1551.77	170.171
1552.41	176.437
1553.04	178.952
1553.67	171.866
1554.3	176.907
1554.93	187.395
1555.56	191.201
1556.19	197.944
1556.82	196.33
1557.45	193.06
1558.09	192.333
1558.72	185.759
1559.35	169.529
1559.98	174.296
1560.61	162.22
1561.24	168.219
1561.87	166.618
1562.5	170.489
1563.13	160.01
1563.76	168.532
1564.39	169.462
1565.02	158.975
1565.65	164.138
1566.28	169.307
1566.91	179.988
1567.54	166.49
1568.17	163.146
1568.8	158.926
1569.43	157.227
1570.06	155.927
1570.68	169.05
1571.31	161.356
1571.94	158.776
1572.57	161.322
1573.2	164.753
1573.83	166.088
1574.46	161.477
1575.09	172.18
1575.71	164.548
1576.34	176.058
1576.97	169.66
1577.6	160.294
1578.23	170.163
1578.86	160.899
1579.48	158.505
1580.11	171.103
1580.74	165.702
1581.37	175.666
1582	167.115
1582.62	160.224
1583.25	170.489
1583.88	163.191
1584.51	155.081
1585.13	165.486
1585.76	162.161
1586.39	164.841
1587.01	165.762
1587.64	163.194
1588.27	159.739
1588.9	160.598
1589.52	166.226
1590.15	161.535
1590.78	166.786
1591.4	168.148
1592.03	163.862
1592.66	167.316
1593.28	173.765
1593.91	163.778
1594.53	165.919
1595.16	162.484
1595.79	164.293
1596.41	156.188
1597.04	174.985
1597.66	157.79
1598.29	172.279
1598.91	166.325
1599.54	168.616
1600.17	177.44
1600.79	167.961
1601.42	166.775
1602.04	168.662
1602.67	170.999
1603.29	168.08
1603.92	164.692
1604.54	157.752
1605.17	161.735
1605.79	160.855
1606.42	164.345
1607.04	166.079
1607.66	177.502
1608.29	167.45
1608.91	166.675
1609.54	169.471
1610.16	165.69
1610.79	164.983
1611.41	168.202
1612.03	167.81
1612.66	166.888
1613.28	165.461
1613.91	164.021
1614.53	168.806
1615.15	169.706
1615.78	173.361
1616.4	167.805
1617.02	165.364
1617.65	181.536
1618.27	158.135
1618.89	169.761
1619.52	182.686
1620.14	156.005
1620.76	176.938
1621.38	171.194
1622.01	158.335
1622.63	175.333
1623.25	163.801
1623.88	169.647
1624.5	171.916
1625.12	167.033
1625.74	180.909
1626.36	170.216
1626.99	175.165
1627.61	167.147
1628.23	164.939
1628.85	165.415
1629.47	166.793
1630.1	171.321
1630.72	178.112
1631.34	170.575
1631.96	185.938
1632.58	173.474
1633.2	169.533
1633.82	172.329
1634.45	170.621
1635.07	158.543
1635.69	182.07
1636.31	171.325
1636.93	174.095
1637.55	166.909
1638.17	176.872
1638.79	180.967
1639.41	176.494
1640.03	172.504
1640.65	193.451
1641.27	177.277
1641.89	184.195
1642.51	181.996
1643.13	183.368
1643.75	175.159
1644.37	186.01
1644.99	186.445
1645.61	186.479
1646.23	185.207
1646.85	183.063
1647.47	195.953
1648.09	196.541
1648.71	192.08
1649.33	186.668
1649.95	201.317
1650.57	209.583
1651.19	215.135
1651.81	214.787
1652.42	220.433
1653.04	224.301
1653.66	236.918
1654.28	231.657
1654.9	232.784
1655.52	246.271
1656.14	236.242
1656.75	233.991
1657.37	240.033
1657.99	217.096
1658.61	227.854
1659.23	202.677
1659.85	212.583
1660.46	209.524
1661.08	204.541
1661.7	209.202
1662.32	193.894
1662.93	199.869
1663.55	204.008
1664.17	188.728
1664.79	185.055
1665.4	198.081
1666.02	190.239
1666.64	190.255
1667.26	184.222
1667.87	183.292
1668.49	185.635
1669.11	188.945
1669.72	183.931
1670.34	180.793
1670.96	179.05
1671.57	181.024
1672.19	182.056
1672.8	170.488
1673.42	187.391
1674.04	179.104
1674.65	172.225
1675.27	172.836
1675.89	171.578
1676.5	172.188
1677.12	174.191
1677.73	172.413
1678.35	162.613
1678.96	161.683
1679.58	168.145
1680.19	161.745
1680.81	162.107
1681.43	167.999
1682.04	165.619
1682.66	159.13
1683.27	160.065
1683.89	153.884
1684.5	157.293
1685.12	157.625
1685.73	157.536
1686.34	166.073
1686.96	160.246
1687.57	152.188
1688.19	150.43
1688.8	151.351
1689.42	153.56
1690.03	152.966
1690.65	146.477
1691.26	150.492
1691.87	152.646
1692.49	146.306
1693.1	154.262
1693.71	146.983
1694.33	141.571
1694.94	149.314
1695.56	144.493
1696.17	152.961
1696.78	147.246
1697.39	140.041
1698.01	153.017
1698.62	146.742
1699.23	144.438
1699.85	149.132
1700.46	140.442
1701.07	147.466
1701.69	150.168
1702.3	145.249
1702.91	151.03
1703.52	142.799
1704.14	150.429
1704.75	140.94
1705.36	145.595
1705.97	148.709
1706.58	146.65
1707.2	140.886
1707.81	151.403
1708.42	145.93
1709.03	140.413
1709.64	133.83
1710.26	138.302
1710.87	140.873
1711.48	140.398
1712.09	144.453
1712.7	143.934
1713.31	138.583
1713.92	142.657
1714.53	136.85
1715.15	135.747
1715.76	144.599
1716.37	145.668
1716.98	143.932
1717.59	144.102
1718.2	137.522
1718.81	139.068
1719.42	139.311
1720.03	143.508
1720.64	148.48
1721.25	140.616
1721.86	141.114
1722.47	143.177
1723.08	137.339
1723.69	138.045
1724.3	140.743
1724.91	147.627
1725.52	144.749
1726.13	150.616
1726.74	152.792
1727.35	150.122
1727.96	144.268
1728.57	143.471
1729.18	143.456
1729.79	142.2
1730.4	145.968
1731.01	148.003
1731.62	151.449
1732.22	149.079
1732.83	145.027
1733.44	144.741
1734.05	146.025
1734.66	157.553
1735.27	157.731
1735.88	158.539
1736.48	155.947
1737.09	146.565
1737.7	150.088
1738.31	154.68
1738.92	151.473
1739.53	153.602
1740.13	156.887
1740.39	157.168
1741	165.699
1741.61	155.766
1742.22	156.791
1742.84	161.309
1743.45	160.855
1744.06	156.932
1744.67	160.528
1745.28	155.162
1745.89	150.807
1746.5	155.469
1747.11	153.118
1747.72	152.76
1748.33	152.891
1748.94	157.533
1749.56	163.175
1750.17	157.743
1750.78	164.885
1751.39	149.36
1752	145.413
1752.61	158.616
1753.22	150.646
1753.83	157.316
1754.44	156.41
1755.05	159.028
1755.66	154.035
1756.27	153.568
1756.88	144.48
1757.49	147.531
1758.1	159.706
1758.71	146.088
1759.31	148.698
1759.92	153.363
1760.53	138.773
1761.14	145.993
1761.75	141.019
1762.36	139.584
1762.97	141.192
1763.58	150.951
1764.19	152.587
1764.8	132.839
1765.4	134.506
1766.01	135.168
1766.62	128.672
1767.23	130.344
1767.84	142.761
1768.45	143.894
1769.05	147.06
1769.66	148.673
1770.27	134.356
1770.88	130.808
1771.49	130.851
1772.09	147.854
1772.7	144.298
1773.31	134.567
1773.92	142.833
1774.52	142.866
1775.13	126.944
1775.74	129.55
1776.35	131.652
1776.95	140.465
1777.56	135.387
1778.17	146.816
1778.77	134.528
1779.38	138.751
1779.99	141.95
1780.59	144.127
1781.2	128.207
1781.81	139.206
1782.41	142.972
1783.02	144.662
1783.63	144.777
1784.23	140.189
1784.84	131.416
1785.45	129.911
1786.05	137.78
1786.66	134.745
1787.26	142.673
1787.87	130.81
1788.48	144.509
1789.08	130.009
1789.69	131.69
1790.29	128.14
1790.9	135.076
1791.5	138.899
1792.11	143.272
1792.71	146.6
1793.32	139.906
1793.92	134.734
1794.53	126.347
1795.13	126.354
1795.74	137.42
1796.34	138.503
1796.95	140.688
1797.55	141.87
1798.16	123.542
1798.76	127.388
1799.37	128.578
1799.97	129.212
1800.58	142.54
1801.18	146.852
1801.78	150.642
1802.39	144.368
1802.99	131.735
1803.6	131.865
1804.2	135.201
1804.8	130.549
1805.41	143.483
1806.01	140.938
1806.61	146.388
1807.22	135.255
1807.82	127.31
1808.42	141.302
1809.03	134.96
1809.63	136.116
1810.23	137.808
1810.84	141.638
1811.44	141.695
1812.04	134.753
1812.65	134.238
1813.25	125.134
1813.85	139.147
1814.45	133.324
1815.06	133.985
1815.66	134.668
1816.26	137.498
1816.86	139.211
1817.47	128.992
1818.07	130.589
1818.67	135.931
1819.27	135.884
1819.87	153.131
1820.48	141.872
1821.08	137.143
1821.68	137.853
1822.28	128.297
1822.88	130.626
1823.48	139.998
1824.08	139.597
1824.69	146.781
1825.29	136.001
1825.89	137.687
1826.49	137.166
1827.09	129.006
1827.69	133.907
1828.29	132.308
1828.89	137.288
1829.49	153.773
1830.1	137.045
1830.7	124.65
1831.3	132.982
1831.9	134.162
1832.5	130.362
1833.1	141.301
1833.7	131.432
1834.3	142.924
1834.9	128.734
1835.5	134.294
1836.1	136.614
1836.7	118.655
1837.3	140.771
1837.9	122.221
1838.5	136.65
1839.1	131.802
1839.7	128.592
1840.3	135.86
1840.89	132.101
1841.49	126.681
1842.09	136.181
1842.69	155.088
1843.29	144.096
1843.89	144.708
1844.49	142.539
1845.09	126.512
1845.69	131.552
1846.29	134.393
1846.88	156.129
1847.48	161.812
1848.08	128.603
1848.68	135.412
1849.28	128.859
1849.88	130.641
1850.47	125.701
1851.07	140.262
1851.67	142.527
1852.27	148.137
1852.87	133.103
1853.46	133.732
1854.06	128.249
1854.66	126.708
1855.26	133.037
1855.85	139.958
1856.45	130.041
1857.05	138.665
1857.65	139.409
1858.24	130.543
1858.84	130.673
1859.44	134.739
1860.04	132.577
1860.63	134.943
1861.23	133.364
1861.83	142.585
1862.42	126.866
1863.02	133.856
1863.62	126.046
1864.21	143.818
1864.81	134.768
1865.41	135.356
1866	133.636
1866.6	135.334
1867.19	139.903
1867.79	127.97
1868.39	132.593
1868.98	134.377
1869.58	133.302
1870.17	124.788
1870.77	137.403
1871.36	138.03
1871.96	127.814
1872.56	129.635
1873.15	124.615
1873.75	132.227
1874.34	135.848
1874.94	138.902
1875.53	130.437
1876.13	136.353
1876.72	131.882
1877.32	132.016
1877.91	130.409
1878.51	132.848
1879.1	137.027
1879.7	142.368
1880.29	143.067
1880.89	134.462
1881.48	127.572
1882.07	122.982
1882.67	138.726
1883.26	130.042
1883.86	134.158
1884.45	138.29
1885.04	126.132
1885.64	132.034
1886.23	124.538
1886.83	124.617
1887.42	131.113
1888.01	131.77
1888.61	130.084
1889.2	133.654
1889.79	131.963
1890.39	126.177
1890.98	139.126
1891.57	129.253
1892.17	138.723
1892.76	128.854
1893.35	127.194
1893.95	136.694
1894.54	135.031
1895.13	126.303
1895.72	128.75
1896.32	130.027
1896.91	132.492
1897.5	132.016
1898.09	132.13
1898.69	131.647
1899.28	125.827
1899.87	131.827
1900.46	130.127
1901.05	131.387
1901.65	139.176
1902.24	130.365
1902.83	128.669
1903.42	134.09
1904.01	128.206
1904.6	125.267
1905.2	130.038
1905.79	130.639
1906.38	133.628
1906.97	132.479
1907.56	134.931
1908.15	124.907
1908.74	122.033
1909.33	129.888
1909.93	124.012
1910.52	133.046
1911.11	132.522
1911.7	137.383
1912.29	122.523
1912.88	133.41
1913.47	133.546
1914.06	137.895
1914.65	130.842
1915.24	131.587
1915.83	137.741
1916.42	134.855
1917.01	134.357
1917.6	133.232
1918.19	136.303
1918.78	125.461
1919.37	133.91
1919.96	127.25
1920.55	138.085
1921.14	138.061
1921.73	133.227
1922.32	124.796
1922.91	129.664
1923.5	135.769
1924.09	123.171
1924.68	127.493
1925.26	138.471
1925.85	135.521
1926.44	141.631
1927.03	128.341
1927.62	132.606
1928.21	133.243
1928.8	135.11
1929.39	132.761
1929.97	138.33
1930.56	148.191
1931.15	128.293
1931.74	127.846
1932.33	128.612
1932.92	125.088
1933.5	125.806
1934.09	125.887
1934.68	135.738
1935.27	127.243
1935.86	121.204
1936.44	136.014
1937.03	133.077
1937.62	141.802
1938.21	127.789
1938.79	136.482
1939.38	132.853
1939.97	131.666
1940.56	136.014
1941.14	124.366
1941.73	130.587
1942.32	125.119
1942.9	123.356
1943.49	135.176
1944.08	127.246
1944.66	132.285
1945.25	131.151
1945.84	125.076
1946.42	125.827
1947.01	125.358
1947.6	129.25
1948.18	124.446
1948.77	132.083
1949.35	122.263
1949.94	138.633
1950.53	127.527
1951.11	126.407
1951.7	138.436
1952.28	138.58
1952.87	134.33
1953.46	148.28
1954.04	121.381
1954.63	126.514
1955.21	117.166
1955.8	128.598
1956.38	128.071
1956.97	138.285
1957.55	139.691
1958.14	128.463
1958.72	134.948
1959.31	130.034
1959.89	127.006
1960.48	128.409
1961.06	139.984
1961.65	137.578
1962.23	133.898
1962.82	137.87
1963.4	134.185
1963.98	128.559
1964.57	136.97
1965.15	124.884
1965.74	136.456
1966.32	126.262
1966.91	132.097
1967.49	134.126
1968.07	125.28
1968.66	134.426
1969.24	132.008
1969.82	129.558
1970.41	130.934
1970.99	122.609
1971.57	134.901
1972.16	131.081
1972.74	128.573
1973.32	134.486
1973.91	130.731
1974.49	128.915
1975.07	134.216
1975.66	133.037
1976.24	138.993
1976.82	133.28
1977.41	134.719
1977.99	121.197
1978.57	128.484
1979.15	122.72
1979.74	131.917
1980.32	137.174
1980.9	143.717
1981.48	137.208
1982.06	130.712
1982.65	132.075
1983.23	115.83
1983.81	136.217
1984.39	136.385
1984.97	128.056
1985.56	136.138
1986.14	132.402
1986.72	127.321
1987.3	132.752
1987.88	137.508
1988.46	123.756
1989.05	133.779
1989.63	134.549
1990.21	129.346
1990.79	129.41
1991.37	132.087
1991.95	142.022
1992.53	130.744
1993.11	129.435
1993.69	128.186
1994.27	129.001
1994.85	138.528
1995.43	144.123
1996.02	131.032
1996.6	132.537
1997.18	127.934
1997.76	131.259
1998.34	127.824
1998.92	143.037
1999.5	136.219
2000.08	127.456
2000.66	138.085
2001.24	134.166
2001.82	126.353
2002.4	137.338
2002.98	136.392
2003.56	134.803
2004.13	137.91
2004.71	131.49
2005.29	133.06
2005.87	126.378
2006.45	130.42
2007.03	133.712
2007.61	132.234
2008.19	132.789
2008.77	122.56
2009.35	136.689
2009.93	127.229
2010.5	131.332
2011.08	121.305
2011.66	132.295
2012.24	118.952
2012.82	134.105
2013.4	139.765
2013.98	133.126
2014.55	144.808
2015.13	135.974
2015.71	132.544
2016.29	129.78
2016.87	128.39
2017.44	135.198
2018.02	138.62
2018.6	129.78
2019.18	141.357
2019.75	135.186
2020.33	128.997
2020.91	122.824
2021.49	135.763
2022.06	127.023
2022.64	128.615
2023.22	122.799
2023.8	136.219
2024.37	122.86
2024.95	127.274
2025.53	143.296
2026.1	132.233
2026.68	143.141
2027.26	134.008
2027.83	137.337
2028.41	138.717
2028.99	145.056
2029.56	131.499
2030.14	133.129
2030.72	131.953
2031.29	125.151
2031.87	142.556
2032.44	132.91
2033.02	137.899
2033.6	133.975
2034.17	121.781
2034.75	127.085
2035.32	128.925
2035.9	127.899
2036.47	132.405
2037.05	131.837
2037.62	132.535
2038.2	121.804
2038.78	131.433
2039.35	129.008
2039.93	135.699
2040.5	134.723
2041.08	131.765
2041.65	132.432
2042.23	130.409
2042.8	134.73
2043.38	139.756
2043.95	132.856
2044.53	139.976
2045.1	131.74
2045.67	145.426
2046.25	135.346
2046.82	141.6
2047.4	130.794
2047.97	146.909
2048.55	150.678
2049.12	124.163
2049.69	133.984
2050.27	135.22
2050.84	137.279
2051.41	129.511
2051.99	127.544
2052.56	128.437
2053.14	138.543
2053.71	135.632
2054.28	126.886
2054.86	126.673
2055.43	137.883
2056	134.941
2056.58	130.693
2057.15	130.805
2057.72	138.101
2058.29	136.874
2058.87	129.933
2059.44	136.592
2060.01	128.223
2060.59	134.932
2061.16	135.18
2061.73	130.351
2062.3	140.628
2062.88	137.141
2063.45	136.509
2064.02	127.924
2064.59	132.412
2065.16	134.108
2065.74	135.159
2066.31	128.225
2066.88	135.86
2067.45	154.432
2068.02	129.632
2068.6	136.938
2069.17	142.641
2069.74	124.849
2070.31	140.686
2070.88	132.487
2071.45	131.703
2072.02	141.995
2072.6	144.416
2073.17	141.082
2073.74	131.883
2074.31	148.329
2074.88	129.41
2075.45	134.692
2076.02	131.109
2076.59	137.153
2077.16	138.122
2077.73	140.663
2078.3	144.736
2078.87	131.65
2079.44	134.053
2080.01	146.738
2080.59	127.977
2081.16	150.107
2081.72	133.575
2082.3	135.729
2082.87	138.758
2083.43	135.968
2084	143.679
2084.57	126.054
2085.14	128.521
2085.71	146.648
2086.28	144.482
2086.85	144.479
2087.42	139.178
2087.99	133.115
2088.56	129.313
2089.13	139.752
2089.7	136.763
2090.27	136.798
2090.84	139.851
2091.41	132.443
2091.98	136.282
2092.54	137.896
2093.11	128.271
2093.68	148.694
2094.25	129.293
2094.82	141.463
2095.39	131.78
2095.96	125.835
2096.52	132.703
2097.09	132.042
2097.66	133.671
2098.23	128.521
2098.8	135.491
2099.36	128.828
2099.93	123.65
2100.5	133.633
2101.07	135.252
2101.64	138.386
2102.2	154.471
2102.77	140.88
2103.34	131.845
2103.91	128.13
2104.47	145.004
2105.04	135.9
2105.61	146.627
2106.18	130.603
2106.74	135.21
2107.31	149.014
2107.88	143.752
2108.44	130.111
2109.01	141.785
2109.58	122.821
2110.14	132.272
2110.71	136.357
2111.28	147.367
2111.84	145.208
2112.41	138.335
2112.98	132.164
2113.54	137.54
2114.11	146.755
2114.67	135.895
2115.24	140.511
2115.81	128.18
2116.37	135.968
2116.94	146.125
2117.5	126.154
2118.07	142.591
2118.63	135.039
2119.2	138.356
2119.77	133.888
2120.33	141.063
2120.9	138.84
2121.46	141.244
2122.03	138.151
2122.59	128.813
2123.16	145.277
2123.72	132.881
2124.29	144.728
2124.85	134.648
2125.42	141.721
2125.98	135.411
2126.55	120.449
2127.11	128.164
2127.68	147.651
2128.24	145.419
2128.81	137.118
2129.37	134.459
2129.93	131.106
2130.5	126.142
2131.06	140.13
2131.63	141.217
2132.19	144.447
2132.75	149.044
2133.32	141.565
2133.88	137.271
2134.45	128.31
2135.01	146.367
2135.57	134.472
2136.14	138.471
2136.7	140.922
2137.26	138.616
2137.83	127.568
2138.39	133.124
2138.95	117.296
2139.52	142.696
2140.08	130.135
2140.64	137.479
2141.21	130.586
2141.77	135.647
2142.33	147.097
2142.89	140.934
2143.46	134.724
2144.02	126.908
2144.58	142.445
2145.14	144.423
2145.71	140.789
2146.27	139.516
2146.83	135.659
2147.39	137.286
2147.96	125.752
2148.52	144.884
2149.08	146.962
2149.64	146.692
2150.2	147.357
2150.76	141.719
2151.33	133.757
2151.89	130.661
2152.45	128.374
2153.01	134.144
2153.57	139.913
2154.13	148.926
2154.7	133.681
2155.26	139.483
2155.82	139.623
2156.38	128.388
2156.94	117.11
2157.5	140.733
2158.06	147.273
2158.62	137.55
2159.18	134.361
2159.74	141.011
2160.3	129.026
2160.87	135.075
2161.43	137.118
2161.99	141.633
2162.55	151.022
2163.11	131.384
2163.67	137.136
2164.23	136.975
2164.79	135.124
2165.35	134.988
2165.91	135.833
2166.47	136.872
2167.03	142.204
2167.59	142.666
2168.15	135.603
2168.71	127.538
2169.27	135.117
2169.83	140.893
2170.39	140.773
2170.94	146.499
2171.5	135.691
2172.06	127.475
2172.62	145.967
2173.18	137.833
2173.74	139.655
2174.3	135.56
2174.86	146.445
2175.42	135.59
2175.98	133.966
2176.53	145.801
2177.09	148.524
2177.65	133.669
2178.21	125.472
2178.77	130.655
2179.33	144.177
2179.89	154.254
2180.44	135.68
2181	147.422
2181.56	136.516
2182.12	136.636
2182.68	139.346
2183.23	138.71
2183.79	143.979
2184.35	147.531
2184.91	133.251
2185.46	126.541
2186.02	142.693
2186.58	130.858
2187.14	133.452
2187.69	142.884
2188.25	152.416
2188.81	132.285
2189.37	137.793
2189.92	144.289
2190.48	127.631
2191.04	139.299
2191.59	158.681
2192.15	138.901
2192.71	133.624
2193.26	142.037
2193.82	151.214
2194.38	129.405
2194.93	132.706
2195.49	138.717
2196.05	137.965
2196.6	151.055
2197.16	149.511
2197.72	147.052
2198.27	137.617
2198.83	137.632
2199.38	129.855
2199.94	141.948
2200.5	133.331
2201.05	150.659
2201.61	150.745
2202.16	137.034
2202.72	155.418
2203.27	120.993
2203.83	147.416
2204.38	134.758
2204.94	137.786
2205.49	145.157
2206.05	135.729
2206.6	135.821
2207.16	134.915
2207.71	134.814
2208.27	125.035
2208.82	140.751
2209.38	142.486
2209.93	136.418
2210.49	156.819
2211.04	144.817
2211.6	138.147
2212.15	139.446
2212.71	130.936
2213.26	139.179
2213.82	146.366
2214.37	127.549
2214.92	144.164
2215.48	143.825
2216.03	127.625
2216.58	142.484
2217.14	142.468
2217.69	137.276
2218.25	142.751
2218.8	141.161
2219.35	137.719
2219.91	142.043
2220.46	157.392
2221.01	133.712
2221.57	135.875
2222.12	152.648
2222.67	140.688
2223.23	138.024
2223.78	138.508
2224.33	128.487
2224.89	134.086
2225.44	137.757
2225.99	137.156
2226.54	143.786
2227.1	135.902
2227.65	143.817
2228.2	145.032
2228.75	130.712
2229.31	141.858
2229.86	135.656
2230.41	146.119
2230.96	143.135
2231.52	151.036
2232.07	135.519
2232.62	139.393
2233.17	133.128
2233.72	132.087
2234.27	130.643
2234.83	144.164
2235.38	139.232
2235.93	129.594
2236.48	142.305
2237.03	138.243
2237.58	141.012
2238.14	144.137
2238.69	144.57
2239.24	141.939
2239.79	145.146
2240.34	135.116
2240.89	144.352
2241.44	138.366
2241.99	138.75
2242.54	142.369
2243.09	137.449
2243.64	135.105
2244.2	134.636
2244.75	142.919
2245.3	136.416
2245.85	142.014
2246.4	141.848
2246.95	141.139
2247.5	148.129
2248.05	136.148
2248.6	138.768
2249.15	137.101
2249.7	142.617
2250.25	143.038
2250.8	142.207
2251.35	149.204
2251.9	139.805
2252.45	139.929
2253	141.063
2253.55	135.452
2254.09	136.59
2254.64	135.104
2255.19	142.185
2255.74	138.753
2256.29	141.237
2256.84	148.052
2257.39	134.57
2257.94	135.369
2258.49	134.218
2259.04	138.946
2259.59	134.461
2260.13	135.062
2260.68	134.526
2261.23	137.582
2261.78	128.47
2262.33	137.56
2262.88	140.877
2263.42	138.067
2263.97	141.036
2264.52	145.278
2265.07	136.463
2265.62	144.008
2266.17	139.581
2266.71	123.974
2267.26	132.334
2267.81	143.117
2268.36	148.589
2268.9	144.482
2269.45	140.717
2270	136.456
2270.55	137.837
2271.09	132.913
2271.64	137.173
2272.19	144.374
2272.74	144.735
2273.28	138.834
2273.83	133.938
2274.38	131.798
2274.68	125.504
2275.23	137.005
2275.78	138.996
2276.33	138.09
2276.88	146.646
2277.43	138.994
2277.98	138.946
2278.53	123.713
2279.08	127.528
2279.63	134.238
2280.18	137.19
2280.73	137.324
2281.28	144.169
2281.83	141.521
2282.38	143.692
2282.93	134.405
2283.48	125.097
2284.03	149.445
2284.58	148.759
2285.13	147.994
2285.68	155.843
2286.23	140.417
2286.78	144.294
2287.32	145.269
2287.87	141.432
2288.42	145.361
2288.97	146.4
2289.52	149.363
2290.07	138.735
2290.62	145.522
2291.17	148.434
2291.71	132.002
2292.26	134.033
2292.81	155.545
2293.36	137.303
2293.91	138.488
2294.46	132.81
2295	152.406
2295.55	128.028
2296.1	136.797
2296.65	149.507
2297.2	147.669
2297.74	141.04
2298.29	142.309
2298.84	143.627
2299.39	138.052
2299.93	138.316
2300.48	145.411
2301.03	152.435
2301.58	151.496
2302.12	145.594
2302.67	143.665
2303.22	131.88
2303.77	141.91
2304.31	151.982
2304.86	134.271
2305.41	139.349
2305.95	148.364
2306.5	143.427
2307.05	140.464
2307.59	152.442
2308.14	148.564
2308.69	137.779
2309.23	137.005
2309.78	142.26
2310.33	148.527
2310.87	146.735
2311.42	147.874
2311.96	150.949
2312.51	145.941
2313.06	123.853
2313.6	136.965
2314.15	122.994
2314.69	155.369
2315.24	150.551
2315.79	139.653
2316.33	153.963
2316.88	134.855
2317.42	140.991
2317.97	144.089
2318.51	149.25
2319.06	157.523
2319.6	150.642
2320.15	138.68
2320.69	145.003
2321.24	151.281
2321.78	131.971
2322.33	147.298
2322.87	146.277
2323.42	146.314
2323.96	142.34
2324.51	155.835
2325.05	150.991
2325.6	143.069
2326.14	162.87
2326.69	168.25
2327.23	163.26
2327.77	164.402
2328.32	181.005
2328.86	173.866
2329.41	168.803
2329.95	196.856
2330.49	217.74
2331.04	231.447
2331.58	210.971
2332.13	182.139
2332.67	174.015
2333.21	142.926
2333.76	131.523
2334.3	151.294
2334.84	138.766
2335.39	157.473
2335.93	167.919
2336.47	160.769
2337.02	167.253
2337.56	145.606
2338.1	143.776
2338.65	152.392
2339.19	156.777
2339.73	153.764
2340.28	155.975
2340.82	160.29
2341.36	149.884
2341.9	144.742
2342.45	141.7
2342.99	139.694
2343.53	154.562
2344.07	178.935
2344.62	135.68
2345.16	157.958
2345.7	147.485
2346.24	134.91
2346.78	144.609
2347.33	151.181
2347.87	151.416
2348.41	150.595
2348.95	149.757
2349.49	160.632
2350.04	143.673
2350.58	143.748
2351.12	133.079
2351.66	149.164
2352.2	165.292
2352.74	156.844
2353.28	151.642
2353.83	149.674
2354.37	159.53
2354.91	145.718
2355.45	151.255
2355.99	160.03
2356.53	158.032
2357.07	153.884
2357.61	161.645
2358.15	159.69
2358.69	133.871
2359.23	137.313
2359.77	147.293
2360.32	159.479
2360.86	179.334
2361.4	154.451
2361.94	149.17
2362.48	140.564
2363.02	143.958
2363.56	158.285
2364.1	151.767
2364.64	167.176
2365.18	155.172
2365.72	142.074
2366.26	164.123
2366.8	142.24
2367.34	137.93
2367.88	141.324
2368.42	156.851
2368.95	152.586
2369.49	165.993
2370.03	152.932
2370.57	147.584
2371.11	136.674
2371.65	136.809
2372.19	162.444
2372.73	161.468
2373.27	168.271
2373.81	169.531
2374.35	164.114
2374.88	164.247
2375.42	146.526
2375.96	155.545
2376.5	171.277
2377.04	155.781
2377.58	152.597
2378.12	152.805
2378.65	157.528
2379.19	152.156
2379.73	139.995
2380.27	148.036
2380.81	150.409
2381.34	165.146
2381.88	162.945
2382.42	162.994
2382.96	156.288
2383.5	150.738
2384.03	128.26
2384.57	140.844
2385.11	161.393
2385.65	155.884
2386.18	191.185
2386.72	132.234
2387.26	154.985
2387.8	134.572
2388.33	138.026
2388.87	157.43
2389.41	162.104
2389.94	170.223
2390.48	172.653
2391.02	149.965
2391.55	151.182
2392.09	137.535
2392.63	146.715
2393.17	160.495
2393.7	159.473
2394.24	153.923
2394.77	144.959
2395.31	147.461
2395.85	146.509
2396.38	146.668
2396.92	145.625
2397.46	167.567
2397.99	175.657
2398.53	156.083
2399.06	167.619
2399.6	149.221
2400.14	145.821
2400.67	148.202
2401.21	149.439
2401.74	165.688
2402.28	173.869
2402.81	157.791
2403.35	169.463
2403.88	138.334
2404.42	137.283
2404.96	151.296
2405.49	156.04
2406.03	174.712
2406.56	172.507
2407.1	171.481
2407.63	160.009
2408.17	159.014
2408.7	148.688
2409.24	149.99
2409.77	166.441
2410.3	173.529
2410.84	156.062
2411.37	154.964
2411.91	159.749
2412.44	141.158
2412.98	147.175
2413.51	153.211
2414.04	165.12
2414.58	167.614
2415.11	151.254
2415.65	156.052
2416.18	157.313
2416.72	147.965
2417.25	183.413
2417.78	161.078
2418.32	181.202
2418.85	180.093
2419.38	163.649
2419.92	173.222
2420.45	176.929
2420.98	151.052
2421.52	161.86
2422.05	165.529
2422.58	166.777
2423.12	163.238
2423.65	157.317
2424.18	165.665
2424.72	155.072
2425.25	145.712
2425.78	170.903
2426.31	153.283
2426.85	154.73
2427.38	169.344
2427.91	148.05
2428.44	157.876
2428.98	174.92
2429.51	155.89
2430.04	177.757
2430.57	162.287
2431.11	173.36
2431.64	156.677
2432.17	167.827
2432.7	171.745
2433.23	159.871
2433.77	169.839
2434.3	178.582
2434.83	162.921
2435.36	170.417
2435.89	177.932
2436.43	158.549
2436.96	158.719
2437.49	140.474
2438.02	183.516
2438.55	155.363
2439.08	160.316
2439.61	171.408
2440.14	162.874
2440.68	176.491
2441.21	158.171
2441.74	169.376
2442.27	165.799
2442.8	174.518
2443.33	157.33
2443.86	166.041
2444.39	166.151
2444.92	158.894
2445.45	162.801
2445.98	164.266
2446.51	163.257
2447.04	157.262
2447.57	164.92
2448.1	152.673
2448.63	181.572
2449.16	143.139
2449.69	157.156
2450.22	171.218
2450.75	177.749
2451.28	179.192
2451.81	169.236
2452.34	157.956
2452.87	159.238
2453.4	163.066
2453.93	160.659
2454.46	157.046
2454.99	197.63
2455.52	172.604
2456.05	171.522
2456.58	169.124
2457.11	176.82
2457.64	171.841
2458.17	154.192
2458.7	172.078
2459.23	164.617
2459.75	167.323
2460.28	182.753
2460.81	180.363
2461.34	174.137
2461.87	158.981
2462.4	177.034
2462.93	170.859
2463.45	165.953
2463.98	190.496
2464.51	166.286
2465.04	177.948
2465.57	174.188
2466.1	166.583
2466.62	179.592
2467.15	174.653
2467.68	169.737
2468.21	179.013
2468.74	172.75
2469.26	168.994
2469.79	167.758
2470.32	156.133
2470.85	176.885
2471.37	160.143
2471.9	162.901
2472.43	180.028
2472.96	167.342
2473.48	150.708
2474.01	174.461
2474.54	165.529
2475.06	157.806
2475.59	178.803
2476.12	174.901
2476.65	186.716
2477.17	184.179
2477.7	173.837
2478.23	170.086
2478.75	154.525
2479.28	188.9
2479.81	179.882
2480.33	168.191
2480.86	185.494
2481.38	179.068
2481.91	168.67
2482.44	143.697
2482.96	162.359
2483.49	170.438
2484.02	202.382
2484.54	185.266
2485.07	176.088
2485.59	168.222
2486.12	170.977
2486.65	161.774
2487.17	168.552
2487.7	203.353
2488.22	179.578
2488.75	178.46
2489.27	161.278
2489.8	173.466
2490.32	181.624
2490.85	161.655
2491.37	176.565
2491.9	186.205
2492.42	174.41
2492.95	170.669
2493.47	164.161
2494	175.09
2494.52	157.535
2495.05	176.349
2495.57	178.921
2496.1	184.229
2496.62	205.81
2497.15	169.515
2497.67	165.645
2498.2	165.848
2498.72	166.029
2499.24	171.579
2499.77	179.793
2500.29	182.561
2500.82	185.349
2501.34	201.781
2501.87	177.585
2502.39	158.861
2502.91	168.791
2503.44	188.372
2503.96	184.685
2504.48	167.14
2505.01	192.061
2505.53	170.112
2506.05	165.975
2506.58	157.709
2507.1	175.638
2507.62	196.435
2508.15	203.595
2508.67	187.366
2509.19	171.09
2509.72	197.683
2510.24	177.105
2510.76	159.197
2511.29	177.336
2511.81	209.356
2512.33	188.56
2512.86	192.778
2513.38	190.051
2513.9	194.291
2514.42	163.762
2514.95	156.897
2515.47	173.741
2515.99	193.42
2516.51	207.547
2517.03	186.752
2517.56	174.288
2518.08	185.559
2518.6	156.239
2519.12	177.271
2519.64	168.923
2520.17	206.809
2520.69	195.745
2521.21	173.507
2521.73	182.182
2522.25	183.899
2522.77	163.093
2523.3	195.884
2523.82	173.579
2524.34	196.504
2524.86	193.901
2525.38	185.569
2525.9	180.042
2526.42	174.501
2526.95	181.773
2527.47	179.098
2527.99	194.976
2528.51	195.184
2529.03	186.812
2529.55	181.275
2530.07	194.335
2530.59	177.299
2531.11	165.963
2531.63	184.75
2532.15	202.117
2532.67	199.365
2533.19	179.332
2533.71	190.918
2534.23	183.786
2534.75	192.486
2535.27	188.251
2535.79	194.153
2536.31	179.94
2536.83	190.341
2537.35	195.059
2537.87	176.612
2538.39	165.348
2538.91	165.655
2539.43	162.986
2539.95	189.491
2540.47	173.622
2540.99	188.497
2541.51	160.912
2542.03	192.051
2542.55	164.404
2543.07	173.484
2543.59	191.372
2544.11	197.41
2544.63	184.222
2545.14	165.134
2545.66	183.084
2546.18	199.678
2546.7	182.221
2547.22	197.443
2547.74	187.336
2548.26	177.14
2548.78	208.712
2549.29	180.491
2549.81	207.607
2550.33	203.31
2550.85	188.497
2551.37	193.148
2551.89	194.772
2552.4	191.877
2552.92	196.528
2553.44	184.701
2553.96	189.524
2554.48	189.917
2554.99	182.779
2555.51	192.287
2556.03	215.444
2556.55	200.496
2557.06	205.242
2557.58	191.651
2558.1	176.52
2558.62	185.83
2559.13	199.768
2559.65	206.089
2560.17	194.026
2560.69	200.319
2561.2	202.013
2561.72	177.627
2562.24	194.738
2562.75	193.461
2563.27	207.623
2563.79	212.552
2564.3	206.627
2564.82	194.435
2565.34	188.36
2565.85	202.378
2566.37	176.121
2566.89	208.77
2567.4	199.625
2567.92	193.615
2568.44	207.837
2568.95	181.624
2569.47	213.008
2569.98	200.772
2570.5	188.518
2571.02	202.851
2571.53	196.892
2572.05	194.07
2572.56	183.366
2573.08	197.756
2573.6	205.784
2574.11	197.965
2574.63	172.746
2575.14	202.628
2575.66	193.17
2576.17	196.386
2576.69	206.009
2577.2	207.852
2577.72	214.501
2578.23	199.014
2578.75	181.868
2579.26	205.919
2579.78	210.906
2580.29	225.42
2580.81	217.657
2581.32	203.51
2581.84	168.598
2582.35	211.852
2582.87	202.401
2583.38	199.275
2583.9	202.485
2584.41	202.463
2584.93	223.22
2585.44	186.494
2585.95	204.185
2586.47	194.776
2586.98	196.626
2587.5	233.809
2588.01	208.391
2588.52	195.719
2589.04	189.388
2589.55	191.038
2590.07	174.953
2590.58	212.006
2591.09	223.375
2591.61	205.843
2592.12	196.438
2592.63	196.777
2593.15	195.533
2593.66	192.657
2594.17	214.127
2594.69	212.809
2595.2	201.643
2595.71	187.137
2596.23	192.165
2596.74	192.276
2597.25	207.095
2597.76	207.221
2598.28	199.185
2598.79	202.628
2599.3	211.015
2599.82	216.149
2600.33	204.871
2600.84	224.829
2601.35	197.086
2601.87	195.662
2602.38	202.483
2602.89	225.817
2603.4	217.74
2603.91	198.028
2604.43	179.924
2604.94	189.959
2605.45	176.828
2605.96	228.405
2606.47	190.441
2606.99	193.954
2607.5	202.435
2608.01	242.514
2608.52	212.657
2609.03	204.437
2609.54	222.927
2610.06	206.465
2610.57	208.405
2611.08	218.75
2611.59	212.359
2612.1	200.889
2612.61	196.085
2613.12	186.214
2613.63	191.492
2614.15	205.246
2614.66	244.409
2615.17	212.646
2615.68	194.32
2616.19	201.344
2616.7	196.43
2617.21	191.446
2617.72	225.506
2618.23	198.377
2618.74	230.78
2619.25	234.341
2619.76	198.79
2620.27	187.081
2620.78	231.717
2621.29	209.788
2621.8	204.941
2622.31	220.687
2622.82	229.641
2623.33	204.225
2623.84	225.247
2624.35	197.955
2624.86	199.91
2625.37	194.881
2625.88	215.74
2626.39	222.72
2626.9	234.872
2627.41	236.648
2627.92	235.002
2628.43	212.627
2628.94	198.969
2629.45	230.521
2629.96	197.844
2630.47	213.887
2630.98	214.252
2631.48	223.323
2631.99	207.853
2632.5	166.013
2633.01	208.327
2633.52	210.323
2634.03	189.457
2634.54	230.183
2635.05	226.885
2635.55	230.598
2636.06	206.037
2636.57	213.256
2637.08	211.692
2637.59	226.142
2638.1	217.652
2638.6	216.285
2639.11	216.68
2639.62	218.796
2640.13	199.403
2640.64	208.504
2641.14	224.754
2641.65	233.906
2642.16	228.807
2642.67	238.106
2643.17	220.481
2643.68	202.765
2644.19	226.38
2644.7	194.098
2645.2	208.673
2645.71	219.717
2646.22	203.757
2646.73	245.809
2647.23	217.277
2647.74	201.355
2648.25	205.369
2648.75	222.095
2649.26	218.674
2649.77	209.691
2650.28	226.269
2650.78	246.5
2651.29	242.943
2651.8	219.256
2652.3	213.925
2652.81	219.663
2653.32	208.938
2653.82	249.776
2654.33	222.521
2654.83	209.927
2655.34	208.339
2655.85	204.838
2656.35	190.167
2656.86	223.632
2657.36	234.85
2657.87	205.25
2658.38	225.718
2658.88	222.094
2659.39	175.818
2659.89	216.942
2660.4	206.164
2660.91	210.383
2661.41	225.894
2661.92	220.779
2662.42	232.418
2662.93	243.9
2663.43	242.058
2663.94	210.042
2664.44	206.278
2664.95	204.502
2665.45	225.482
2665.96	242.915
2666.46	245.413
2666.97	227.108
2667.47	216.301
2667.98	195.823
2668.48	236.311
2668.99	232.763
2669.49	221.426
2670	238.739
2670.5	250.302
2671.01	225.5
2671.51	204.577
2672.01	206.733
2672.52	210.878
2673.02	207.392
2673.53	261.837
2674.03	221.722
2674.53	206.599
2675.04	239.847
2675.54	212.858
2676.05	218.757
2676.55	230.434
2677.05	234.356
2677.56	232.511
2678.06	221.009
2678.57	238.718
2679.07	229.17
2679.57	213.715
2680.08	245.013
2680.58	250.985
2681.08	233.599
2681.59	245.582
2682.09	226.343
2682.59	242.338
2683.09	224.966
2683.6	236.95
2684.1	233.176
2684.6	225.459
2685.11	227.62
2685.61	218.04
2686.11	222.323
2686.61	258.299
2687.12	238.955
2687.62	191.749
2688.12	219.896
2688.62	232.209
2689.13	236.604
2689.63	219.062
2690.13	237.513
2690.63	219.933
2691.14	226.39
2691.64	224.778
2692.14	245.296
2692.64	219.367
2693.14	237.813
2693.65	248.177
2694.15	199.801
2694.65	230.427
2695.15	236.767
2695.65	247.19
2696.15	227.108
2696.65	215.116
2697.16	241.824
2697.66	246.139
2698.16	232.105
2698.66	242.632
2699.16	232.76
2699.66	216.746
2700.16	254.153
2700.66	240.196
2701.17	238.533
2701.67	245.079
2702.17	235.032
2702.67	243.549
2703.17	239.604
2703.67	221.108
2704.17	262.766
2704.67	233.878
2705.17	238.231
2705.67	223.91
2706.17	232.475
2706.67	213.801
2707.17	241.073
2707.67	235.278
2708.17	236.374
2708.67	244.879
2709.17	260.913
2709.67	254.789
2710.17	237.286
2710.67	224.266
2711.17	247.001
2711.67	228.419
2712.17	282.971
2712.67	248.695
2713.17	260.051
2713.67	231.688
2714.17	221.938
2714.67	249.863
2715.17	244.855
2715.67	249.747
2716.17	253.549
2716.67	263.018
2717.17	231.209
2717.67	242.989
2718.16	221.7
2718.66	235.963
2719.16	266.02
2719.66	246.432
2720.16	271.5
2720.66	250.435
2721.16	220.149
2721.66	211.535
2722.15	249.894
2722.65	251.408
2723.15	254.291
2723.65	264.335
2724.15	259.041
2724.65	253.366
2725.14	222.843
2725.64	241.18
2726.14	228.859
2726.64	213.942
2727.14	238.048
2727.64	262.711
2728.13	254.88
2728.63	253.266
2729.13	224.964
2729.63	237.36
2730.12	248.476
2730.62	263.586
2731.12	250.635
2731.62	250.863
2732.11	251.727
2732.61	259
2733.11	231.659
2733.61	242.962
2734.1	253.36
2734.6	261.249
2735.1	257.023
2735.59	272.308
2736.09	261.702
2736.59	244.389
2737.09	239.442
2737.58	241.36
2738.08	250.875
2738.57	264.991
2739.07	252.101
2739.57	238.414
2740.06	249.748
2740.56	256.71
2741.06	237.296
2741.55	256.541
2742.05	251.228
2742.55	241.15
2743.04	261.801
2743.54	247.469
2744.04	244.603
2744.53	238.641
2745.03	237.28
2745.52	255.325
2746.02	244.512
2746.51	275.575
2747.01	295.352
2747.51	273.909
2748	266.264
2748.5	239.936
2748.99	255.287
2749.49	267.391
2749.98	249.761
2750.48	261.602
2750.97	267.823
2751.47	274.068
2751.96	245.166
2752.46	240.618
2752.95	264.743
2753.45	270.282
2753.94	248.577
2754.44	243.583
2754.93	262.455
2755.43	254.075
2755.92	280.965
2756.42	238.696
2756.81	270.668
2757.31	256.606
2757.8	249.73
2758.3	235.723
2758.8	264.963
2759.3	243.925
2759.79	259.041
2760.29	223.464
2760.79	272.507
2761.29	282.737
2761.78	263.611
2762.28	254.026
2762.78	273.569
2763.28	224.949
2763.77	249.458
2764.27	247.261
2764.77	274.419
2765.26	252.725
2765.76	270.088
2766.26	277.61
2766.76	265.499
2767.25	253.399
2767.75	280.631
2768.25	295.759
2768.74	286.434
2769.24	252.479
2769.74	248.084
2770.23	268.44
2770.73	244.137
2771.22	252.025
2771.72	257.376
2772.22	280.131
2772.71	257.925
2773.21	293.123
2773.71	300.868
2774.2	283.624
2774.7	238.807
2775.19	261.633
2775.69	269.379
2776.18	269.49
2776.68	264.471
2777.18	289.565
2777.67	274.554
2778.17	257.225
2778.66	262.79
2779.16	266.087
2779.65	261.896
2780.15	290.674
2780.64	276.002
2781.14	260.979
2781.63	322.293
2782.13	230.315
2782.63	301.753
2783.12	245.72
2783.61	271.597
2784.11	256.752
2784.6	254.788
2785.1	252.842
2785.59	276.656
2786.09	248.78
2786.58	277.712
2787.08	298.875
2787.57	270.661
2788.07	250.114
2788.56	307.515
2789.05	304.999
2789.55	286.754
2790.04	258.022
2790.54	273.482
2791.03	257.758
2791.53	265.519
2792.02	278.63
2792.51	278.93
2793.01	253.326
2793.5	274.759
2794	264.891
2794.49	249.68
2794.98	323.682
2795.48	289.858
2795.97	295.386
2796.46	277.179
2796.96	322.329
2797.45	251.411
2797.94	291.555
2798.44	270.916
2798.93	298.094
2799.42	290.777
2799.92	280.765
2800.41	300.145
2800.9	290.048
2801.4	303.986
2801.89	253.196
2802.38	304.43
2802.87	272.049
2803.37	293.392
2803.86	271.73
2804.35	357.728
2804.84	301.462
2805.34	250.653
2805.83	288.786
2806.32	289.216
2806.81	254.423
2807.31	306.121
2807.8	279.29
2808.29	336.511
2808.78	277.148
2809.27	269.369
2809.77	272.499
2810.26	259.261
2810.75	286.892
2811.24	298.071
2811.73	292.731
2812.23	317.383
2812.72	328.337
2813.21	301.056
2813.7	287.579
2814.19	307.156
2814.68	288.491
2815.18	291.831
2815.67	286.853
2816.16	292.739
2816.65	281.838
2817.14	273.491
2817.63	270.55
2818.12	275.872
2818.61	286.791
2819.1	284.085
2819.59	306.368
2820.09	326.056
2820.58	287.761
2821.07	288.1
2821.56	263.431
2822.05	296.91
2822.54	305.462
2823.03	291.878
2823.52	325.669
2824.01	315.112
2824.5	310.175
2824.99	266.035
2825.48	308.517
2825.97	280.771
2826.46	289.225
2826.95	331.161
2827.44	319.671
2827.93	302.588
2828.42	313.595
2828.91	310.776
2829.4	285.763
2829.89	258.061
2830.38	297.706
2830.87	306.544
2831.36	309.691
2831.85	287.394
2832.34	321.298
2832.83	304.484
2833.32	284.853
2833.81	284.966
2834.3	316.118
2834.79	321.922
2835.27	347.495
2835.76	302.526
2836.25	282.994
2836.74	328.586
2837.23	306.379
2837.72	286.973
2838.21	307.239
2838.7	347.314
2839.19	316.118
2839.67	313.189
2840.16	315.846
2840.65	321.333
2841.14	304.169
2841.63	318.32
2842.12	315.498
2842.6	343.903
2843.09	352.399
2843.58	355.181
2844.07	306.901
2844.56	323.961
2845.05	312.75
2845.53	335.705
2846.02	353.037
2846.51	381.722
2847	359.109
2847.48	339.264
2847.97	350.749
2848.46	339.558
2848.95	337.048
2849.44	340.345
2849.92	360.8
2850.41	363.983
2850.9	389.819
2851.39	361.005
2851.87	383.472
2852.36	343.003
2852.85	373.893
2853.33	393.385
2853.82	421.441
2854.31	395.516
2854.79	327.085
2855.28	358.101
2855.77	343.803
2856.26	372.197
2856.74	332.67
2857.23	443.777
2857.72	407.332
2858.2	353.718
2858.69	362.62
2859.18	342.887
2859.66	348.655
2860.15	348.551
2860.63	388.179
2861.12	345.054
2861.61	361.664
2862.09	310.129
2862.58	346.741
2863.06	329.622
2863.55	346.721
2864.04	341.255
2864.52	349.98
2865.01	381.302
2865.49	389.671
2865.98	332.565
2866.47	298.151
2866.95	362.889
2867.44	359.856
2867.92	342.953
2868.41	363.033
2868.89	357.721
2869.38	318.274
2869.86	343.796
2870.35	357.736
2870.83	360.2
2871.32	342.911
2871.8	351.273
2872.29	371.211
2872.77	380.085
2873.26	366.395
2873.74	363.939
2874.23	372.641
2874.71	361.266
2875.2	335.599
2875.68	346.864
2876.17	380.965
2876.65	344.298
2877.14	370.136
2877.62	344.791
2878.1	356.229
2878.59	341.87
2879.07	369.903
2879.56	409.041
2880.04	408.37
2880.52	348.408
2881.01	364.896
2881.49	364.578
2881.98	370.05
2882.46	370.032
2882.94	395.499
2883.43	384.415
2883.91	404.38
2884.4	350.945
2884.88	331.266
2885.36	353.814
2885.85	381.879
2886.33	387.274
2886.81	353.206
2887.3	336.14
2887.78	378.331
2888.26	358.721
2888.75	302.599
2889.23	390.371
2889.71	371.092
2890.2	365.962
2890.68	360.833
2891.16	367.012
2891.64	336.209
2892.13	345.026
2892.61	339.489
2893.09	416.279
2893.57	379.202
2894.06	370.529
2894.54	361.896
2895.02	395.964
2895.5	336.388
2895.99	396.247
2896.47	376.589
2896.95	399.619
2897.43	345.758
2897.92	380.121
2898.4	380.218
2898.88	368.801
2899.36	397.164
2899.84	371.325
2900.33	371.136
2900.81	379.589
2901.29	413.843
2901.77	380.003
2902.25	394.731
2902.73	355.301
2903.21	338.595
2903.7	327.474
2904.18	393.545
2904.66	382.232
2905.14	396.633
2905.62	390.92
2906.1	365.074
2906.58	356.332
2907.07	373.272
2907.55	318.672
2908.03	384.226
2908.51	421.305
2908.99	390.005
2909.47	396.04
2909.95	356.395
2910.43	362.579
2910.91	334.316
2911.39	435.263
2911.87	380.996
2912.35	386.986
2912.83	384.213
2913.31	369.775
2913.8	363.839
2914.28	392.323
2914.76	389.173
2915.24	409.122
2915.72	360.365
2916.2	372.145
2916.68	372.615
2917.16	364.496
2917.64	399.553
2918.12	402.721
2918.6	356.586
2919.08	356.524
2919.55	388.222
2920.03	376.765
2920.51	371.301
2920.99	423.908
2921.47	352.173
2921.95	378.894
2922.43	391.015
2922.91	402.947
2923.39	365.208
2923.87	365.173
2924.35	388.402
2924.83	400.068
2925.31	368.194
2925.79	391.724
2926.27	406.646
2926.74	339.975
2927.22	352.049
2927.7	378.732
2928.18	419.977
2928.66	379.112
2929.14	414.138
2929.62	364.169
2930.09	413.579
2930.57	369.555
2931.05	457.163
2931.53	399.001
2932.01	343.893
2932.49	400.102
2932.97	397.784
2933.44	424.695
2933.92	419.05
2934.4	348.452
2934.88	354.105
2935.35	383.168
2935.83	412.288
2936.31	365.37
2936.79	392.08
2937.27	383.827
2937.74	360.96
2938.22	408.82
2938.7	382.848
2939.18	350.742
2939.65	398.398
2940.13	407.555
2940.61	416.729
2941.09	402.207
2941.56	363.915
2942.04	358.216
2942.52	358.411
2942.99	412.115
2943.47	367.72
2943.95	376.962
2944.43	371.441
2944.9	419.755
2945.38	363.599
2945.86	403.076
2946.33	382.583
2946.81	382.929
2947.29	395.175
2947.76	422.389
2948.24	389.517
2948.72	392.77
2949.19	375.071
2949.67	363.486
2950.14	361.01
2950.62	394.82
2951.1	349.944
2951.57	383.61
2952.05	377.756
2952.53	371.81
2953	387.136
2953.48	329.783
2953.95	391.093
2954.43	364.448
2954.9	392.687
2955.38	371.941
2955.86	412.08
2956.33	357.027
2956.81	350.778
2957.28	347.595
2957.76	399.643
2958.23	366.282
2958.71	391.329
2959.18	382.786
2959.66	401.872
2960.13	340.772
2960.61	353.356
2961.08	390.457
2961.56	412.041
2962.03	362.703
2962.51	362.791
2962.98	375.398
2963.46	360.445
2963.93	348.734
2964.41	321.565
2964.88	384.417
2965.36	391.276
2965.83	404.125
2966.31	407.383
2966.78	382.436
2967.26	376.215
2967.73	401.334
2968.2	370.508
2968.68	339.792
2969.15	365.46
2969.63	356.703
2970.1	382.432
2970.57	367.227
2971.05	386.585
2971.52	390.187
2972	336.945
2972.47	350.007
2972.94	353.593
2973.42	385.66
2973.89	385.955
2974.37	389.343
2974.84	395.897
2975.31	335.803
2975.79	364.798
2976.26	378.111
2976.73	359.722
2977.21	398.974
2977.68	387.128
2978.15	371.933
2978.63	346.834
2979.1	331.1
2979.57	357.049
2980.04	376.377
2980.52	398.882
2980.99	379.597
2981.46	399.317
2981.94	335.363
2982.41	355.69
2982.88	386.023
2983.35	364.309
2983.83	365.206
2984.3	349.53
2984.77	369.76
2985.24	403.144
2985.72	341.21
2986.19	358.193
2986.66	319.079
2987.13	362.356
2987.6	365.923
2988.08	356.223
2988.55	386.313
2989.02	366.955
2989.49	337.814
2989.96	395.309
2990.44	383.076
2990.91	367.397
2991.38	405.252
2991.85	385.955
2992.32	366.49
2992.79	373.917
2993.27	388.078
2993.74	378.478
2994.21	328.034
2994.68	352.093
2995.15	386.344
2995.62	393.496
2996.09	407.62
2996.56	350.346
2997.04	344.272
2997.51	314.263
2997.98	363.116
2998.45	370.84
2998.92	388.894
2999.39	420.838
2999.86	397.496
3000.33	419.235
3000.8	371.453
3001.27	417.589
3001.74	383.405
3002.21	415.486
3002.68	433.555
3003.15	374.479
3003.62	378.571
3004.1	315.884
3004.57	387.08
3005.04	394.936
3005.51	395.67
3005.98	403.407
3006.45	368.458
3006.92	397.417
3007.39	433.586
3007.86	373.557
3008.33	384.79
3008.8	388.856
3009.27	403.611
3009.73	368.173
3010.2	415.179
3010.67	415.634
3011.14	351.431
3011.61	384.35
3012.08	410.217
3012.55	360.36
3013.02	444.354
3013.49	438.109
3013.96	413.769
3014.43	363.823
3014.9	368.436
3015.37	446.22
3015.84	384.471
3016.3	476.595
3016.77	403.197
3017.24	425.279
3017.71	429.143
3018.18	407.536
3018.65	386.153
3019.12	350.089
3019.59	388.001
3020.05	385.2
3020.52	415.799
3020.99	427.84
3021.46	439.965
3021.93	414.767
3022.4	366.969
3022.86	401.696
3023.33	443.97
3023.8	380.453
3024.27	418.738
3024.74	388.946
3025.2	438.763
3025.67	382.54
3026.14	371.868
3026.61	433.62
3027.08	438.282
3027.54	419.917
3028.01	424.41
3028.48	428.868
3028.95	444.854
3029.41	383.917
3029.88	392.219
3030.35	385.158
3030.82	455.526
3031.28	413.833
3031.75	445.825
3032.22	509.054
3032.68	381.236
3033.15	381.726
3033.62	440.682
3034.09	409.668
3034.55	460.82
3035.02	433.818
3035.49	402.948
3035.95	379.893
3036.42	384.25
3036.89	439.664
3037.35	341.546
3037.82	448.226
3038.29	488.305
3038.75	453.78
3039.22	383.736
3039.68	416.884
3040.15	398.299
3040.62	371.341
3041.08	476.286
3041.55	392.452
3042.02	424.842
3042.48	457.334
3042.95	421.671
3043.41	398.201
3043.88	411.082
3044.35	407.746
3044.81	416.385
3045.28	412.724
3045.74	421.22
3046.21	413.632
3046.67	471.444
3047.14	431.811
3047.6	392.093
3048.07	442.435
3048.53	464.015
3049	456.555
3049.47	469.501
3049.93	449.33
3050.4	458.083
3050.86	429.658
3051.33	434.401
3051.79	418.438
3052.26	460.692
3052.72	423.962
3053.19	453.945
3053.65	433.93
3054.12	451.61
3054.58	435.793
3055.04	432.522
3055.51	441.856
3055.97	476.538
3056.44	494.373
3056.9	452.851
3057.37	466.399
3057.83	454.443
3058.3	357.171
3058.76	383.464
3059.22	452.694
3059.69	526.514
3060.15	463.109
3060.62	408.028
3061.08	426.022
3061.54	435.384
3062.01	427.43
3062.47	467.115
3062.94	498.212
3063.4	494.561
3063.86	447.293
3064.33	460.854
3064.79	478.8
3065.25	440.106
3065.72	489.004
3066.18	450.69
3066.64	491.62
3067.11	440.325
3067.57	446.291
3068.03	483.261
3068.5	439.962
3068.96	485.384
3069.42	432.296
3069.89	504.122
3070.35	491.127
3070.81	473.866
3071.27	492.752
3071.74	457.95
3072.2	459.153
3072.66	442.195
3073.12	483.924
3073.59	571.055
3074.05	485.552
3074.51	513.702
3074.97	405.125
3075.44	474.556
3075.9	507.589
3076.36	540.64
3076.82	509.314
3077.29	514.734
3077.75	488.031
3078.21	475.337
3078.67	458.154
3079.13	473.489
3079.6	418.753
3080.06	447.621
3080.52	541.807
3080.98	593.887
3081.44	571.215
3081.9	497.231
3082.37	494.124
3082.83	434.55
3083.29	493.476
3083.75	528.743
3084.21	568.473
3084.67	593.283
3085.14	550.39
3085.6	449.627
3086.06	478.353
3086.52	497.675
3086.98	512.516
3087.44	522.916
3087.9	572.198
3088.36	544.677
3088.82	522.002
3089.28	445.791
3089.75	520.128
3090.21	497.005
3090.67	498.085
3091.13	597.183
3091.59	549.295
3092.05	521.13
3092.51	438.711
3092.97	460.093
3093.43	476.638
3093.89	542.966
3094.35	494.085
3094.81	549.85
3095.27	495.185
3095.73	555.961
3096.19	466.392
3096.65	543.162
3097.11	514.413
3097.57	541.23
3098.03	481.487
3098.49	609.505
3098.95	533.74
3099.41	570.045
3099.87	560.736
3100.33	536.407
3100.79	491.679
3101.25	503.394
3101.71	576.971
3102.17	583.332
3102.63	630.951
3103.09	600.833
3103.54	586.399
3104	593.048
3104.46	484.957
3104.92	533.71
3105.38	545.976
3105.84	611.13
3106.3	570.768
3106.76	609.891
3107.22	563.881
3107.68	490.614
3108.13	577.419
3108.59	545.925
3109.05	642.813
3109.51	589.208
3109.97	546.491
3110.43	600.943
3110.89	542.949
3111.34	576.941
3111.8	616.677
3112.26	585.786
3112.72	603.46
3113.18	604.494
3113.64	665.485
3114.09	513.137
3114.55	535.936
3115.01	515.044
3115.47	483.207
3115.93	484.437
3116.38	635.173
3116.84	647.838
3117.3	582.518
3117.76	550.15
3118.21	539.774
3118.67	512.439
3119.13	535.329
3119.59	563.988
3120.04	654.731
3120.5	538.264
3120.96	539.954
3121.42	615.469
3121.87	629.057
3122.33	568.453
3122.79	575.81
3123.24	623.054
3123.7	612.86
3124.16	602.491
3124.61	615.073
3125.07	621.894
3125.53	541.999
3125.99	589.35
3126.44	561.528
3126.9	551.166
3127.36	645.822
3127.81	699.962
3128.27	525.674
3128.73	632.379
3129.18	527.734
3129.64	599.692
3130.09	678.269
3130.55	633.116
3131.01	605.652
3131.46	673.458
3131.92	573.458
3132.38	646.616
3132.83	569.317
3133.29	630.143
3133.74	637.078
3134.2	602.16
3134.66	634.089
3135.11	666.491
3135.57	650.432
3136.02	621.938
3136.48	623.766
3136.93	674.656
3137.39	651.779
3137.84	628.846
3138.3	624.521
3138.75	651.399
3139.21	609.842
3139.67	674.422
3140.12	582.204
3140.58	665.628
3141.03	686.137
3141.49	700.228
3141.94	657.188
3142.4	620.215
3142.85	608.449
3143.31	552.023
3143.76	629.418
3144.22	598.666
3144.67	612.944
3145.13	666.159
3145.58	655.367
3146.03	592.574
3146.49	742.645
3146.94	729.976
3147.4	588.318
3147.85	658.209
3148.31	614.907
3148.76	701.806
3149.21	739.629
3149.67	729.858
3150.12	716.537
3150.58	640.199
3151.03	702.422
3151.49	635.389
3151.94	605.631
3152.39	637.047
3152.85	703.084
3153.3	755.611
3153.75	714.483
3154.21	730.421
3154.66	625.112
3155.11	659.675
3155.57	622.328
3156.02	680.665
3156.47	736.872
3156.93	660.092
3157.38	683.817
3157.84	711.898
3158.29	761.222
3158.74	678.436
3159.19	674.257
3159.65	654.753
3160.1	722.012
3160.55	703.7
3161.01	761.363
3161.46	725.073
3161.91	702.845
3162.37	667.767
3162.82	601.928
3163.27	723.757
3163.72	700.563
3164.18	725.223
3164.63	696.181
3165.08	634.658
3165.53	736.234
3165.99	685.96
3166.44	685.143
3166.89	748.303
3167.34	773.593
3167.79	803.039
3168.25	736.701
3168.7	756.182
3169.15	691.713
3169.6	638.246
3170.05	695.291
3170.51	753.769
3170.96	715.464
3171.41	750.595
3171.86	786.379
3172.31	701.122
3172.76	713.915
3173.22	677.919
3173.67	634.099
3174.12	743.003
3174.57	765.311
3175.02	780.109
3175.47	657.512
3175.92	693.105
3176.38	715.985
3176.83	670.097
3177.28	703.989
3177.73	713.038
3178.18	820.123
3178.63	799.667
3179.08	818.234
3179.53	748.711
3179.98	595.3
3180.43	700.263
3180.89	803.677
3181.34	844.551
3181.79	739.419
3182.24	788.261
3182.69	790.812
3183.14	747.832
3183.59	746.04
3184.04	759.31
3184.49	778.962
3184.94	837.471
3185.39	803.745
3185.84	820.186
3186.29	859.406
3186.74	815.849
3187.19	803.784
3187.64	777.152
3188.09	761.037
3188.54	763.511
3188.99	748.105
3189.44	828.793
3189.89	786.285
3190.34	790.403
3190.79	826.706
3191.24	790.217
3191.69	740.248
3192.14	880.17
3192.59	822.45
3193.04	776.354
3193.12	771.328
3193.57	678.182
3194.02	764.654
3194.48	796.442
3194.93	789.082
3195.38	820.706
3195.83	836.301
3196.29	757.52
3196.74	741.273
3197.19	686.116
3197.64	733.144
3198.09	804.384
3198.55	782.282
3199	736.709
3199.45	824.593
3199.9	746.501
3200.35	651.917
3200.81	722.574
3201.26	864.337
3201.71	841.508
3202.16	788.289
3202.61	799.42
3203.06	851.21
3203.52	774.949
3203.97	713.089
3204.42	778.397
3204.87	842.233
3205.32	784.394
3205.77	911.167
3206.22	846.175
3206.67	806.547
3207.12	848.331
3207.58	721.919
3208.03	796.936
3208.48	807.259
3208.93	938.966
3209.38	737.047
3209.83	925.436
3210.28	861.493
3210.73	838.541
3211.18	815.784
3211.63	792.739
3212.08	941.74
3212.53	810.513
3212.98	810.218
3213.43	875.42
3213.88	793.02
3214.33	826.534
3214.78	778.96
3215.23	881.045
3215.69	826.694
3216.13	905.001
3216.59	882.154
3217.03	740.29
3217.49	789.253
3217.93	795.42
3218.38	809.814
3218.83	841.552
3219.28	717.051
3219.73	851.038
3220.18	861.693
3220.63	897.81
3221.08	891.869
3221.53	792.631
3221.98	910.397
3222.43	909.484
3222.88	890.986
3223.33	872.252
3223.78	895.496
3224.23	844.396
3224.68	760.93
3225.13	761.492
3225.57	904.515
3226.02	973.278
3226.47	791.139
3226.92	843.368
3227.37	996.786
3227.82	863.825
3228.27	772.423
3228.72	815.991
3229.17	927.309
3229.61	877.398
3230.06	886.682
3230.51	946.864
3230.96	947.46
3231.41	828.746
3231.86	965.29
3232.3	880.275
3232.75	769.605
3233.2	940.224
3233.65	889.668
3234.1	873.75
3234.55	986.766
3234.99	903.525
3235.44	914.632
3235.89	839.269
3236.34	909.966
3236.78	936.991
3237.23	972.294
3237.68	842.948
3238.13	904.473
3238.58	775.486
3239.02	829.15
3239.47	935.453
3239.92	832.304
3240.37	912.28
3240.81	948.384
3241.26	852.892
3241.71	871.391
3242.16	881.267
3242.6	864.815
3243.05	892.318
3243.5	840.307
3243.94	1026.61
3244.39	1036.61
3244.84	923.124
3245.28	836.421
3245.73	954.481
3246.18	876.826
3246.63	986.221
3247.07	906.768
3247.52	924.663
3247.96	914.765
3248.41	824.069
3248.86	841.031
3249.31	965.893
3249.75	940.025
3250.2	852.342
3250.64	818.634
3251.09	1009.9
3251.54	948.951
3251.98	1040.79
3252.43	951.24
3252.87	933.609
3253.32	943.073
3253.77	898.328
3254.21	889.965
3254.66	890.666
3255.1	1009.18
3255.55	954.64
3256	845.067
3256.44	844.052
3256.89	1033.05
3257.33	824.152
3257.78	932.93
3258.22	988.633
3258.67	1036.5
3259.11	802.735
3259.56	832.605
3260	880.41
3260.45	890.748
3260.9	946.056
3261.34	964.033
3261.79	908.574
3262.23	899.436
3262.68	918.432
3263.12	910.317
3263.57	994.233
3264.01	902.974
3264.46	940.209
3264.9	885.111
3265.35	820.917
3265.79	867.772
3266.23	878.158
3266.68	805.463
3267.12	917.94
3267.57	891.356
3268.01	892.591
3268.46	959.239
3268.9	867.837
3269.35	963.321
3269.79	1021.6
3270.23	901.184
3270.68	939.575
3271.12	986.882
3271.57	1128.1
3272.01	949.907
3272.45	903.897
3272.9	943.288
3273.34	1002.15
3273.79	1070.8
3274.23	920.918
3274.67	1026.93
3275.12	961.314
3275.56	895.305
3276.01	905.42
3276.45	934.667
3276.89	1011.75
3277.34	1069.79
3277.78	907.804
3278.22	1003.96
3278.67	985.461
3279.11	1024.89
3279.55	1007.52
3279.99	1077.5
3280.44	1022.91
3280.88	1074.7
3281.32	922.285
3281.77	904.764
3282.21	1120.5
3282.65	935.757
3283.1	984.889
3283.54	897.423
3283.98	1074.14
3284.42	1124.34
3284.87	949.379
3285.31	920.941
3285.75	1088.28
3286.19	911.371
3286.64	1028.42
3287.08	1037.41
3287.52	978.299
3287.96	1096.53
3288.41	1147.35
3288.85	854.601
3289.29	955.113
3289.73	946.724
3290.17	1006.61
3290.62	907.56
3291.06	976.311
3291.5	1025.66
3291.94	1006.63
3292.38	938.731
3292.83	1009.63
3293.27	1010.7
3293.71	1080.4
3294.15	970.638
3294.59	1118.88
3295.03	1089.33
3295.48	1021.41
3295.92	994.332
3296.36	917.668
3296.8	1121.06
3297.24	1022.88
3297.68	1054.19
3298.12	964.315
3298.56	1187.25
3299.01	1048.35
3299.45	1051.55
3299.89	973.554
3300.33	1159.33
3300.77	1007.17
3301.21	1179.48
3301.65	1065.6
3302.09	1125.73
3302.53	1167.46
3302.97	1017.5
3303.41	1021.13
3303.86	1076.07
3304.3	1161.11
3304.74	997.363
3305.18	1018.11
3305.62	1028.49
3306.06	1143.06
3306.5	1011.23
3306.94	1077.24
3307.38	1050.39
3307.82	1200.67
3308.26	982.892
3308.7	1098.68
3309.14	971.649
3309.58	1158.19
3310.02	1062
3310.46	966.707
3310.9	903.597
3311.34	1049.75
3311.78	1102.79
3312.22	905.728
3312.66	1085.48
3313.1	1108.97
3313.54	1048.5
3313.98	1040.1
3314.42	1009.71
3314.85	988.748
3315.29	998.462
3315.73	1028.61
3316.17	984.958
3316.61	1004.86
3317.05	1098.96
3317.49	1067.85
3317.93	1079.68
3318.37	1050.3
3318.81	1190.88
3319.25	1184.62
3319.69	1093.4
3320.12	990.417
3320.56	1111.06
3321	1026.73
3321.44	1102.22
3321.88	1037.4
3322.32	1187.43
3322.76	1166.27
3323.19	1006.01
3323.63	1060.86
3324.07	1018.45
3324.51	1136.61
3324.95	995.466
3325.39	1015.3
3325.82	1142.61
3326.26	992.197
3326.7	1079.19
3327.14	1146.39
3327.58	1085.2
3328.01	1164.08
3328.45	1057.73
3328.89	1003.81
3329.33	991.894
3329.77	1141.5
3330.2	1236.72
3330.64	1106.21
3331.08	1074.43
3331.52	1260.47
3331.95	993.112
3332.39	1007.57
3332.83	1032.78
3333.27	1133.82
3333.7	1145.89
3334.14	1101.42
3334.58	1033.78
3335.02	1074.85
3335.45	1170.29
3335.89	1114.15
3336.33	950.883
3336.76	1028.14
3337.2	1128.48
3337.64	1087.53
3338.08	969.336
3338.51	1211.99
3338.95	1168.69
3339.39	1135.7
3339.82	1124.66
3340.26	1103.26
3340.7	1258.88
3341.13	1140.87
3341.57	1012.14
3342.01	971.73
3342.44	1086.83
3342.88	1123.24
3343.32	1034.92
3343.75	1012.1
3344.19	1323.58
3344.62	1232.44
3345.06	1019.88
3345.5	1009.65
3345.93	1269.23
3346.37	1115.48
3346.8	1027.64
3347.24	1095.21
3347.68	1205.72
3348.11	1180.3
3348.55	1009.95
3348.98	1131.33
3349.42	941.94
3349.85	1189.81
3350.29	1047.99
3350.73	1255.36
3351.16	1159.42
3351.6	1164.91
3352.03	998.611
3352.47	1094.01
3352.9	1165.89
3353.34	1213.59
3353.77	1017.98
3354.21	1097.6
3354.64	958.096
3355.08	1094.43
3355.51	1139.46
3355.95	1185.64
3356.38	1221.71
3356.82	1189.91
3357.25	1066.15
3357.69	1022.7
3358.12	1326.62
3358.56	1154.62
3358.99	1121.08
3359.43	1156.83
3359.86	1355.31
3360.3	1180.71
3360.73	1052.31
3361.17	1051.66
3361.6	1306.51
3362.03	1223.79
3362.47	1199.46
3362.9	1187.33
3363.34	1129.48
3363.77	1060.52
3364.2	1259.02
3364.64	1260.04
3365.07	1260.91
3365.51	1226.95
3365.94	1181.82
3366.37	1102.45
3366.81	1258.19
3367.24	1333.47
3367.68	1256.01
3368.11	1414.69
3368.54	1180.98
3368.98	1171.54
3369.41	1185.06
3369.84	1185.97
3370.28	1246.1
3370.71	1210.29
3371.14	1281.8
3371.58	1150.25
3372.01	1126.55
3372.44	1210.99
3372.88	1128.76
3373.31	1322.78
3373.74	1193.5
3374.18	1304.73
3374.61	1066.03
3375.04	1116.39
3375.48	1130.18
3375.91	1277.09
3376.34	1266.18
3376.77	1242.96
3377.21	1171.05
3377.64	1123.5
3378.07	1246.79
3378.5	1285.33
3378.94	1104.16
3379.37	1449.57
3379.8	1305.06
3380.23	1282.83
3380.67	1247.85
3381.1	1212.34
3381.53	1275.09
3381.96	1040.8
3382.4	1361.67
3382.83	1273.98
3383.26	1222.63
3383.69	1097.27
3384.12	1218.13
3384.56	1253.89
3384.99	1475.46
3385.42	1269.36
3385.85	1273.31
3386.28	1141.53
3386.71	1293.8
3387.15	1258.69
3387.58	1371.14
3388.01	1333.14
3388.44	1257.71
3388.87	1207.93
3389.3	1321.07
3389.73	1398.53
3390.17	1277.36
3390.6	1281.07
3391.03	1296.82
3391.46	1336.8
3391.89	1136.47
3392.32	1162.16
3392.75	1301.04
3393.18	1351.7
3393.61	1314.49
3394.05	1391.76
3394.48	1065.56
3394.91	1157.85
3395.34	1290.13
3395.77	1142.2
3396.2	1429.61
3396.63	1368.81
3397.06	1189.04
3397.49	1226.15
3397.92	1325.93
3398.35	1284.09
3398.78	1218.03
3399.21	1217.85
3399.64	1437.07
3400.07	1246.97
3400.5	1222.94
3400.93	1352.11
3401.36	1313.17
3401.79	1171.37
3402.22	1274.81
3402.65	1367.38
3403.08	1345.87
3403.51	1402.71
3403.94	1211.78
3404.37	1382.64
3404.8	1485.32
3405.23	1260.23
3405.66	1087.04
3406.09	1237.24
3406.52	1439.56
3406.95	1336.31
3407.38	1287.33
3407.81	1356.49
3408.24	1336.61
3408.67	1186.14
3409.1	1124.75
3409.53	1244.54
3409.96	1375.77
3410.39	1452.99
3410.82	1281.09
3411.24	1383.72
3411.67	1291.66
3412.1	1148.81
3412.53	1294.21
3412.96	1310.03
3413.39	1561.92
3413.82	1393.19
3414.25	1248.75
3414.68	1247.19
3415.1	1283.92
3415.53	1189.84
3415.96	1279.71
3416.39	1397.24
3416.82	1294.64
3417.25	1297.65
3417.67	1301
3418.1	1316.95
3418.53	1094.57
3418.96	1345.23
3419.39	1410.19
3419.82	1342.75
3420.24	1288.58
3420.67	1419.03
3421.1	1274.86
3421.53	1145.19
3421.96	1214.35
3422.38	1351.43
3422.81	1277.26
3423.24	1388.6
3423.67	1404.8
3424.09	1284.32
3424.52	1508.31
3424.95	1290.05
3425.38	1205.4
3425.81	1333.5
3426.23	1278.67
3426.66	1424.32
3427.09	1374.95
3427.51	1354.09
3427.94	1334.56
3428.37	1221.55
3428.8	1592.81
3429.22	1328.93
3429.65	1427.74
3430.08	1578.13
3430.5	1589.5
3430.93	1450.1
3431.36	1298.08
3431.79	1107.6
3432.21	1392.02
3432.64	1353.77
3433.07	1342.61
3433.49	1411.34
3433.92	1206.4
3434.35	1365.21
3434.77	1320.13
3435.2	1007.91
3435.63	1384.7
3436.05	1537.07
3436.48	1300.42
3436.9	1457.18
3437.33	1258.8
3437.76	1276.55
3438.18	1443.3
3438.61	1539.56
3439.04	1332.76
3439.46	1442.9
3439.89	1568.65
3440.31	1337.9
3440.74	1051.23
3441.17	1414.6
3441.59	1444.46
3442.02	1403.09
3442.44	1346.7
3442.87	1484.72
3443.29	1346.24
3443.72	1459.55
3444.14	1351.93
3444.57	1314.35
3445	1388.24
3445.42	1348.32
3445.85	1530.75
3446.27	1457.75
3446.7	1565.15
3447.12	1337.03
3447.55	1319.78
3447.97	1374.1
3448.4	1486.53
3448.82	1406.38
3449.25	1480.21
3449.67	1371.35
3450.1	1512.1
3450.52	1495.82
3450.95	1393.62
3451.37	1222.05
3451.8	1274.56
3452.22	1412.75
3452.65	1721.14
3453.07	1657.72
3453.5	1454.41
3453.92	1332.34
3454.34	1277.44
3454.77	1065.63
3455.19	1456.04
3455.62	1342.11
3456.04	1440.63
3456.47	1303.85
3456.89	1534.56
3457.31	1272.14
3457.74	1446.37
3458.16	1391.3
3458.59	1532.95
3459.01	1560.19
3459.43	1574.5
3459.86	1534.44
3460.28	1339.51
3460.71	1502.05
3461.13	1348.81
3461.55	1437.71
3461.98	1481.73
3462.4	1568.06
3462.82	1438.88
3463.25	1383.08
3463.67	1690
3464.09	1448.17
3464.52	1378.54
3464.94	1568.15
3465.36	1551.15
3465.79	1488.09
3466.21	1496.29
3466.63	1533.76
3467.06	1444.57
3467.48	1358.94
3467.9	1333.8
3468.33	1382.92
3468.75	1447.74
3469.17	1613.96
3469.59	1676.32
3470.02	1516.52
3470.44	1369.2
3470.86	1221.71
3471.29	1206.57
3471.71	1426.65
3472.13	1591.51
3472.55	1333.43
3472.98	1515.46
3473.4	1697.45
3473.82	1256.36
3474.24	1450.11
3474.67	1539.91
3475.09	1511.72
3475.51	1425.17
3475.93	1458.52
3476.35	1671.82
3476.78	1526.14
3477.2	1634
3477.62	1440.21
3478.04	1620.77
3478.46	1304.55
3478.89	1513.66
3479.31	1647.33
3479.73	1526.3
3480.15	1450.9
3480.57	1436.06
3480.99	1391.82
3481.42	1528.17
3481.84	1680.43
3482.26	1487.57
3482.68	1611.23
3483.1	1569.26
3483.52	1496.31
3483.94	1558.37
3484.37	1603.65
3484.79	1314.33
3485.21	1584.72
3485.63	1628.83
3486.05	1584.35
3486.47	1572.44
3486.89	1577.32
3487.31	1475.64
3487.73	1417.75
3488.15	1448.95
3488.58	1508.03
3489	1504.1
3489.42	1757.82
3489.84	1481.21
3490.26	1464.63
3490.68	1359.32
3491.1	1452.46
3491.52	1455.42
3491.94	1534.01
3492.36	1565.56
3492.78	1442.81
3493.2	1485.86
3493.62	1315.7
3494.04	1434.37
3494.46	1554.6
3494.88	1617.05
3495.3	1636.84
3495.72	1658.22
3496.14	1679.4
3496.56	1391.82
3496.98	1545.67
3497.4	1512.55
3497.82	1401.27
3498.24	1457.79
3498.66	1576.05
3499.08	1666.31
3499.5	1486.39
3499.92	1369.45
