#Acq. time (s)=	10
#Accumulations=	10
#Range (cm-¹)=	400...3500
#Windows=	3
#Auto scanning=	Off
#Autofocus=	Off
#AutoExposure=	Off
#Spike filter=	Multiple accum.
#Delay time (s)=	0
#Binning=	1
#Readout mode=	Signal
#DeNoise=	Off
#ICS correction=	On
#Dark correction=	Off
#Inst. Process=	Off
#Detector Gain=	Best Dynamic Range
#Detector ADC=	45 kHz       
#Detector temperature (°C)=	-60.1
#Instrument=	LabRAM HR Evol
#Detector=	Syncerity OE
#Objective=	x50_VIS_LWD
#Grating=	600 (500nm)
#ND Filter=	50%
#Laser=	532nm_Edge
#Hole=	199.981
#Range=	Visible
#E-Cal_Neon=	0
#StageXY=	75x50mm Scan+
#StageZ=	Z motor
#X (µm)=	0
#Y (µm)=	0
#Z (µm)=	693.7
#Spectral res.(cm-¹)=	12.8
#Full time(mm:ss)=	5:19
#AC=	Calibrated 2025-07-01 10:31
#Project=	
#Sample=	
#Site=	
#Title=	D_1
#Remark=	
#Date=	01.07.2025 16:33 (India Standard Time)
#Acquired=	01.07.2025 16:33:22 (India Standard Time)
#AxisType[0]=Intens
#AxisUnit[0]=Cnt
#AxisType[1]=Spectr
#AxisUnit[1]=1/cm
400.083	24547.7
401.858	24414.3
403.63	24447.5
405.405	24435.3
407.176	24394.1
408.949	24408
410.72	24482.8
412.493	24428.6
414.263	24454.4
416.033	24536.2
417.805	24570.5
419.574	24451
421.345	24542.4
423.114	24513
424.884	24407.6
426.652	24536.5
428.421	24572.9
430.188	24538.8
431.955	24597.7
433.724	24580.4
435.49	24564.6
437.258	24527.2
439.023	24541.7
440.788	24551.8
442.555	24555.7
444.32	24460.7
446.084	24493.5
447.85	24485.4
449.613	24513.7
451.376	24449.7
453.141	24487.1
454.904	24393.4
456.666	24464.4
458.429	24469.7
460.191	24530.5
461.952	24364.7
463.715	24487.1
465.475	24493.2
467.235	24463.4
468.995	24425.3
470.756	24501.3
472.515	24576.9
474.274	24478.8
476.032	24485.3
477.793	24623.5
479.55	24503.7
481.308	24513.8
483.065	24578
484.823	24541.1
486.58	24512
488.336	24608.8
490.091	24584.6
491.847	24567.7
493.604	24536.2
495.358	24613.8
497.113	24620.5
498.867	24636.9
500.62	24679.9
502.374	24713.5
504.127	24737.6
505.881	24732.4
507.634	24755.6
509.386	24684.8
511.137	24779.6
512.888	24773.3
514.639	24783.4
516.39	24808.6
518.14	24720.4
519.89	24676.1
521.642	24709.7
523.391	24669.1
525.14	24703.5
526.889	24732.3
528.637	24669.7
530.385	24650.4
532.133	24660.3
533.88	24612
535.627	24651.1
537.373	24630.4
539.12	24679.1
540.866	24605.2
542.611	24622.4
544.357	24675.4
546.101	24575.8
547.846	24626
549.59	24651.7
551.334	24606.9
553.078	24714.3
554.821	24660.4
556.564	24659.6
558.307	24662.1
560.049	24699.5
561.789	24654.8
563.53	24715.1
565.272	24697.9
567.013	24682.7
568.753	24702.7
570.494	24704.5
572.233	24718.6
573.973	24666.3
575.712	24740.5
577.449	24671.3
579.188	24699.1
580.926	24725.5
582.664	24764.6
584.402	24838
586.139	24716
587.876	24698.3
589.611	24759.9
591.347	24692.3
593.083	24733.6
594.818	24763.7
596.554	24749
598.287	24797.5
600.021	24658.6
601.756	24666.5
603.49	24779.6
605.221	24753
606.955	24819.6
608.688	24696.4
610.42	24720
612.15	24680.7
613.882	24705.4
615.614	24762.8
617.345	24694.1
619.074	24728.7
620.805	24702.7
622.535	24631.2
624.263	24623.1
625.993	24574.7
627.722	24627
629.45	24571.8
631.178	24591.7
632.907	24530.6
634.633	24680.8
636.36	24630.8
638.088	24616.1
639.813	24689.4
641.539	24737.6
643.264	24633.3
644.99	24550.2
646.716	24591.4
648.439	24540.8
650.164	24555.2
651.887	24576.6
653.611	24604.5
655.335	24621.2
657.057	24517.5
658.781	24608
660.502	24558.8
662.225	24599.2
663.945	24524.1
665.667	24566.5
667.387	24619.1
669.108	24668.4
670.828	24563.5
672.548	24559
674.267	24591.6
675.987	24604.9
677.705	24611.3
679.424	24592.6
681.142	24572.4
682.86	24535.8
684.577	24581.4
686.293	24632.8
688.011	24592.1
689.727	24600.1
691.444	24647
693.159	24605.2
694.875	24656.6
696.59	24584.9
698.304	24662.8
700.019	24709
701.733	24679.8
703.448	24633.1
705.16	24550.4
706.872	24564.3
708.586	24466.7
710.298	24590.2
712.01	24574
713.723	24553.9
715.433	24599.5
717.144	24513.9
718.856	24646.4
720.565	24618.5
722.275	24548.6
723.984	24578.6
725.695	24632.8
727.403	24543.3
729.111	24541.4
730.821	24569.6
732.528	24575.2
734.235	24558
735.942	24610
737.651	24571
739.357	24537.7
741.063	24512.7
742.768	24578.9
744.474	24551.8
746.18	24571.9
747.885	24540
749.589	24507.5
751.293	24564.8
752.997	24619.1
754.702	24573.1
756.405	24582
758.108	24631
759.81	24662.1
761.512	24563.2
763.214	24598.5
764.915	24739.1
766.618	24591.7
768.319	24665.6
770.019	24683.8
771.719	24656.4
773.419	24647.4
775.118	24691.1
776.817	24761
778.516	24678
780.214	24698.7
781.913	24625.4
783.61	24659.5
785.308	24619
787.005	24680
788.702	24611.9
790.398	24654.5
792.095	24567.9
793.791	24662.8
795.486	24539.1
797.181	24645.8
798.876	24619.9
800.571	24689.8
802.265	24596.8
803.959	24600.8
805.653	24580.2
807.346	24593.9
809.039	24597.4
810.732	24545
812.424	24459.1
814.116	24504.4
815.808	24590.6
817.5	24556.6
819.191	24562.9
820.881	24534.3
822.572	24627.6
824.26	24677.5
825.95	24625
827.639	24629.2
829.329	24639.9
831.018	24683
832.706	24722.8
834.394	24659.8
836.08	24670.2
837.768	24599.8
839.455	24603.2
841.142	24703.3
842.829	24693.1
844.513	24715.7
846.199	24814.6
847.885	24790.9
849.57	24744.4
851.255	24767
852.938	24793.8
854.623	24799.7
856.307	24743.4
857.991	24784.2
859.672	24828.5
861.355	24740.8
863.038	24795.7
864.719	24743.7
866.401	24781.4
868.083	24738.6
869.765	24672.2
871.444	24667.7
873.125	24761.3
874.806	24768.8
876.484	24761.7
878.164	24711.1
879.844	24691.4
881.521	24653.9
883.2	24666.8
884.877	24619.3
886.555	24620.1
888.234	24643.4
889.909	24581.7
891.587	24595.2
893.262	24552
894.939	24562.3
896.616	24551.4
898.29	24545.7
899.966	24397.8
901.64	24408.3
903.315	24447.7
904.988	24405.3
906.663	24333
908.335	24339.3
910.009	24341.4
911.683	24327.6
913.354	24288
915.027	24322.6
916.698	24371.2
918.369	24283.9
920.041	24295.1
921.711	24284.2
923.383	24240.8
925.052	24273.2
926.723	24145.3
928.391	24167.8
930.062	24139.7
931.73	24047.8
933.399	24168.2
935.067	24092.8
936.734	24081.4
938.403	24187.6
940.069	24231.1
941.737	24176.1
943.403	24200.3
945.069	24181.8
946.736	24244.3
948.401	24158.5
950.065	24187.4
951.732	24117.9
953.396	24201.6
955.059	24112.6
956.725	24181.7
958.388	24188.6
960.051	24224.1
961.715	24207.9
963.377	24185.7
965.039	24264.9
966.7	24189.9
968.364	24187.6
970.025	24081.5
971.685	24131.1
973.345	24210.8
975.007	24142.8
976.667	24113.5
978.326	24111.2
979.985	24140.4
981.646	24168.5
983.304	24149.3
984.963	24228.7
986.62	24182.9
988.278	24194.9
989.935	24252.6
991.594	24222.3
993.25	24189
994.907	24296.4
996.563	24324.8
998.218	24437.9
999.874	24374.1
1001.53	24414.2
1003.19	24311.8
1004.84	24300.3
1006.49	24205.4
1008.15	24198.6
1009.8	24171.6
1011.45	24199.4
1013.11	24141.5
1014.76	24206.3
1016.41	24152.8
1018.06	24187.3
1019.72	24105.5
1021.37	24109.5
1023.02	24075.6
1024.67	24061.7
1026.32	24064.5
1027.97	24074.4
1029.62	24068.5
1031.27	23966.2
1032.92	23965.8
1034.57	23971.3
1036.22	23975.5
1037.86	23991.5
1039.51	24036.4
1041.16	23955.4
1042.81	24002.2
1044.45	23952.6
1046.1	23928.2
1047.75	24005.5
1049.39	24012.8
1051.04	24046.2
1052.68	24017.3
1054.33	24031.9
1055.97	24100.1
1057.62	24134.5
1059.26	24050.6
1060.91	24120.2
1062.55	24108.1
1064.19	24072
1065.83	24044.6
1067.48	24104.7
1069.12	24187.2
1070.76	24095.8
1072.4	24194
1074.04	24164.8
1075.68	24154.6
1077.32	24163.9
1078.97	24176.5
1080.61	24033.2
1082.24	24081.7
1083.88	24020.9
1085.52	24025.2
1087.16	23934.2
1088.8	23943.7
1090.44	23938.8
1092.08	23827
1093.71	23825.2
1095.35	23778.2
1096.99	23679.1
1098.62	23707.1
1100.26	23727.5
1101.9	23639.1
1103.53	23665.1
1105.17	23656
1106.8	23679.1
1108.44	23621.5
1110.07	23656.4
1111.7	23735.9
1113.34	23792.3
1114.97	23784.2
1116.6	23810.4
1118.23	23733.7
1119.87	23831.9
1121.5	23743.3
1123.13	23649.7
1124.76	23667.9
1126.39	23636.5
1128.03	23597
1129.65	23554.6
1131.29	23486.5
1132.91	23495.1
1134.54	23439
1136.17	23444.4
1137.8	23418.1
1139.43	23475.7
1141.06	23467
1142.69	23542
1144.31	23607
1145.94	23572.2
1147.57	23715.1
1149.19	23827.3
1150.82	23947.3
1152.45	23959.6
1154.07	23991.6
1155.7	23876.7
1157.32	23730.2
1158.95	23514.1
1160.57	23498.4
1162.2	23377.7
1163.82	23312.5
1165.44	23288
1167.07	23298.9
1168.69	23284.4
1170.31	23219.6
1171.94	23117.7
1173.56	23107.1
1175.18	23181.5
1176.8	23159
1178.42	23103.9
1180.04	23113.5
1181.66	23122.2
1183.28	23075.7
1184.9	23158.6
1186.52	23124.3
1188.14	23093.1
1189.76	23166.3
1191.38	23025.3
1192.99	23024.3
1194.61	23073.9
1196.23	22957.8
1197.85	23020.5
1199.46	22943.7
1201.08	22983.4
1202.7	22954.7
1204.31	22970.6
1205.93	22976.6
1207.54	22888.9
1209.16	22950.5
1210.78	22946.4
1212.39	22944.4
1214	22947.8
1215.62	22806.1
1217.23	22904.1
1218.84	22902.1
1220.46	22851.3
1222.07	22878.3
1223.68	22832.8
1225.29	22832.3
1226.91	22954.2
1228.52	22877.3
1230.13	22851.4
1231.74	22910
1233.35	22860.7
1234.96	22892.5
1236.57	22839.7
1238.18	22818.3
1239.79	22917.2
1241.4	22966.4
1243	22962.3
1244.61	22983.6
1246.22	23094.1
1247.83	23009.8
1249.43	22943.2
1251.04	22973.2
1252.65	22897.2
1254.25	22993.7
1255.86	22973.3
1257.47	22962.7
1259.07	22967.1
1260.68	23019.8
1262.28	23039.6
1263.89	23001.2
1265.49	23034.2
1267.09	22929.4
1268.7	22844.6
1270.3	22803.7
1271.9	22915
1273.51	22837.8
1275.11	22769.5
1276.71	22780.9
1278.31	22808.5
1279.91	22793.8
1281.52	22729.4
1283.12	22797.9
1284.72	22804.6
1286.32	22766.4
1287.92	22842.8
1289.52	22895.4
1291.12	22896.5
1292.72	22965.8
1294.31	23079.3
1295.91	23045.2
1297.51	23078.4
1299.11	23067.7
1300.71	23031.9
1302.3	23011.2
1303.9	23056.4
1305.5	22950
1307.09	22836.8
1308.69	22853.5
1310.28	22807.9
1311.88	22719.7
1313.47	22659.8
1315.07	22592
1316.66	22573.2
1318.26	22488.7
1319.85	22490.5
1321.44	22391.4
1323.04	22474.6
1324.63	22347.8
1326.22	22421.8
1327.82	22381.9
1329.41	22360.8
1331	22412.9
1332.59	22442.4
1334.18	22397.3
1335.77	22421.3
1337.36	22351.1
1338.95	22348.8
1340.54	22393.5
1342.13	22308.4
1343.72	22263.8
1345.31	22219.1
1346.9	22274.3
1348.49	22253.7
1350.07	22216.7
1351.66	22222
1353.25	22148.8
1354.84	22177.3
1356.42	22081.8
1358.01	22173.9
1359.6	22096
1361.18	22027.7
1362.77	22066.6
1364.35	21976.4
1365.94	22024.5
1367.52	21967.8
1369.11	21980.8
1370.69	21950.2
1372.28	21905.1
1373.86	21861
1375.44	21756.7
1377.02	21771.2
1378.61	21816.1
1380.19	21795.7
1381.77	21795
1383.35	21659.7
1384.93	21626.6
1386.52	21692.5
1388.1	21717.4
1389.68	21775.8
1391.26	21663.2
1392.84	21759.8
1394.41	21726.6
1396	21674.6
1397.57	21639.1
1399.15	21638.2
1400.73	21654.4
1402.31	21658.6
1403.89	21694.8
1405.46	21633.5
1407.04	21675.2
1408.62	21587.1
1410.19	21735.5
1411.77	21722.7
1413.35	21710.6
1414.92	21734.8
1416.5	21789.6
1418.07	21789.1
1419.65	21877.9
1421.22	21779.5
1422.8	21848.3
1424.37	21912.5
1425.94	22013.4
1427.52	22079.9
1429.09	22309.6
1430.66	22448.3
1432.23	22628.3
1433.8	22643.2
1435.38	22741.4
1436.95	22737.2
1438.52	22743.1
1440.09	22661.4
1441.66	22607.8
1443.23	22568.1
1444.8	22473.7
1446.37	22469.2
1447.94	22471.7
1449.51	22379.7
1451.08	22291.2
1452.65	22227.4
1454.22	22151.7
1455.78	22149.1
1457.35	22110.8
1458.92	22005.8
1460.48	21926.9
1462.05	21922
1463.62	21723.8
1465.18	21680
1466.75	21502.3
1468.31	21567.6
1469.88	21433.1
1471.44	21271.1
1473.01	21232.1
1474.57	21204.3
1476.14	21131.3
1477.7	21079.7
1479.26	20988.4
1480.83	20967.2
1482.39	20934.3
1483.95	20967.8
1485.51	20973.3
1487.08	20918.5
1488.64	20972.3
1490.2	20864.3
1491.76	21001.1
1493.32	20930.5
1494.88	20993.6
1496.44	20995.7
1498	20937.9
1499.56	20992.7
1501.12	20954.6
1502.68	20951.5
1504.24	21000.6
1505.8	21081.5
1507.35	21102.3
1508.91	21126.5
1510.47	21163.6
1512.03	21254.4
1513.58	21269.8
1515.14	21327
1516.69	21308.7
1518.25	21285
1519.81	21354.2
1521.36	21261.8
1522.92	21241.5
1524.47	21168.2
1526.03	21097.2
1527.58	20899.9
1529.13	20915.9
1530.69	20743.6
1532.24	20712.3
1533.79	20696.7
1535.35	20650.7
1536.9	20517.8
1538.45	20562.6
1540	20553.9
1541.55	20542.1
1543.11	20570.5
1544.66	20554.5
1546.21	20537.7
1547.76	20508.8
1549.31	20513.7
1550.86	20480.9
1552.41	20509.3
1553.96	20391.9
1555.5	20432.6
1557.05	20391
1558.6	20441.9
1560.15	20307
1561.7	20352.1
1563.24	20359.9
1564.79	20440.7
1566.34	20413.5
1567.88	20370.1
1569.43	20399.4
1570.98	20399.5
1572.52	20354.5
1574.07	20358.3
1575.61	20295.2
1577.16	20361.8
1578.7	20288.1
1580.25	20310.4
1581.79	20294.1
1583.34	20331.5
1584.88	20262.3
1586.42	20304.4
1587.96	20212.6
1589.51	20203.5
1591.05	20241
1592.59	20186.7
1594.13	20253.8
1595.67	20179.2
1597.21	20230.6
1598.76	20198.5
1600.3	20266.1
1601.83	20213.9
1603.37	20237
1604.92	20141.4
1606.45	20175.5
1607.99	20154.3
1609.53	20228.6
1611.07	20144.6
1612.61	20096.2
1614.15	20050.9
1615.68	20027
1617.22	20006.5
1618.76	20039
1620.29	19990.9
1621.83	20049.1
1623.37	19961.1
1624.9	19982.5
1626.44	19968.1
1627.97	20080.4
1629.51	20000.5
1631.04	20053.8
1632.58	20006.9
1634.11	19988.1
1635.64	19990.2
1637.18	19993.5
1638.71	20017.6
1640.24	20116.7
1641.78	20001.1
1643.31	20121.1
1644.84	20110.3
1646.37	20242
1647.9	20314.4
1649.44	20335.1
1650.97	20325.3
1652.5	20337.1
1654.03	20299.2
1655.56	20266.9
1657.09	20067.3
1658.62	20046.5
1660.14	19984.4
1661.67	19959.5
1663.2	19966.8
1664.73	19926.3
1666.26	19755.5
1667.79	19791.8
1669.31	19792
1670.84	19730.1
1672.37	19691.2
1673.89	19698.1
1675.42	19615.3
1676.95	19544.5
1678.47	19538.8
1680	19465
1681.52	19511
1683.05	19419.4
1684.57	19320.1
1686.1	19379.5
1687.62	19286.3
1689.14	19308
1690.67	19177.5
1692.19	19221.4
1693.71	19268.5
1695.23	19218.2
1696.76	19148.8
1698.28	19125.9
1699.8	19104.2
1701.32	19010.9
1702.84	18974.3
1704.36	18966.8
1705.88	18979.4
1707.4	18982.6
1708.92	18926.8
1710.44	18936.3
1711.96	18902.6
1713.48	18979.8
1715	18909.2
1716.52	18836.5
1718.04	18828.4
1719.56	18810.7
1721.07	18838.3
1722.59	18878.7
1724.11	18836.7
1725.63	18784.6
1727.14	18811.7
1728.66	18808.4
1730.17	18787.9
1731.69	18850.3
1733.2	18859.4
1734.72	18869.3
1736.23	18764.5
1737.75	18901.3
1739.26	18842.6
1740.78	18899.6
1742.29	18837.5
1743.8	18743.1
1745.32	18796.7
1746.83	18750.2
1748.34	18807.6
1749.86	18744.9
1751.37	18717
1752.88	18643.9
1754.39	18625.1
1755.9	18531.2
1757.41	18521
1758.92	18448.1
1760.43	18489.9
1761.94	18408
1763.45	18412.9
1764.96	18349.7
1766.47	18407.4
1767.98	18375.8
1769.49	18311.2
1771	18338.5
1772.5	18431.2
1774.01	18320.3
1775.52	18334.7
1777.03	18309.8
1778.53	18259.7
1780.04	18350.5
1781.55	18244.4
1783.05	18244.2
1784.56	18229.9
1786.06	18274.9
1787.57	18254.6
1789.07	18230.7
1790.58	18219.7
1792.08	18226.8
1793.59	18178.3
1795.09	18214.8
1796.59	18101.6
1798.1	18159.7
1799.6	18042.9
1801.1	18136
1802.61	18085
1804.11	18048
1805.61	18110.2
1807.11	17985.9
1808.61	18009.6
1810.11	17992
1811.61	18026.6
1813.11	18030.9
1814.61	17955.5
1816.11	17979
1817.61	17906.9
1819.11	17902.6
1820.61	17839.2
1822.11	17911.6
1823.61	17859
1825.11	17836.6
1826.6	17914.2
1828.1	17896.3
1829.6	17924
1831.1	17814.6
1832.59	17771.8
1834.09	17815.5
1835.59	17753.6
1837.08	17763.5
1838.58	17756.2
1840.07	17763
1841.57	17796.8
1843.06	17746.3
1844.56	17772.4
1846.05	17725.2
1847.54	17693.6
1849.04	17706.4
1850.53	17690.3
1852.02	17603.1
1853.52	17601.8
1855.01	17628.6
1856.5	17619.1
1857.99	17546.7
1859.49	17590
1860.98	17552.7
1862.47	17595.6
1863.96	17530
1865.45	17485.9
1866.94	17513.5
1868.43	17499.6
1869.92	17467.1
1871.41	17492.7
1872.9	17466.5
1874.39	17513.9
1875.88	17496.9
1877.37	17497
1878.85	17425
1880.34	17398.4
1881.83	17410.9
1883.32	17396.1
1884.8	17313
1886.29	17316.4
1887.78	17223.4
1889.26	17321.3
1890.75	17279.9
1892.23	17282.1
1893.72	17223.2
1895.21	17260.6
1896.69	17218.2
1898.17	17181.4
1899.66	17178.1
1901.14	17101.6
1902.63	17031.3
1904.11	17058.2
1905.59	16958.6
1907.08	16966.1
1908.56	16930.2
1910.04	16894.7
1911.52	16806.3
1913	16808.2
1914.49	16778.7
1915.97	16693.3
1917.45	16651.7
1918.93	16644.7
1920.41	16593.2
1921.89	16561.6
1923.37	16535.4
1924.85	16552.1
1926.33	16498.6
1927.81	16445
1929.29	16426.1
1930.76	16388.1
1932.24	16357.9
1933.72	16354.1
1935.2	16306
1936.67	16260.6
1938.15	16220.9
1939.63	16158.3
1941.1	16143.4
1942.58	16126.2
1944.06	16131.9
1945.53	16061
1947.01	16042.2
1948.48	15999.9
1949.96	15984
1951.43	15876.1
1952.91	15822.9
1954.38	15776.3
1955.86	15777.9
1957.33	15760.2
1958.8	15689
1960.27	15625.9
1961.75	15626.1
1963.22	15611.5
1964.69	15627.9
1966.16	15546
1967.64	15519.9
1969.11	15488.2
1970.58	15452.6
1972.05	15443.9
1973.52	15395.1
1974.99	15396.9
1976.46	15329.8
1977.93	15273
1979.4	15305.2
1980.87	15254
1982.34	15253.2
1983.81	15240.2
1985.27	15202.7
1986.74	15149.7
1988.21	15128.5
1989.68	15089.7
1991.14	15073.9
1992.61	15021.1
1994.08	14984.9
1995.55	14955.2
1997.01	14906.7
1998.48	14879.9
1999.94	14832.9
2001.41	14820.1
2002.87	14769.1
2004.34	14768.4
2005.8	14772.3
2007.27	14740.5
2008.73	14723.7
2010.19	14684.9
2011.66	14666.8
2013.12	14620.9
2014.58	14620.5
2016.05	14606.7
2017.51	14567
2018.97	14528.9
2020.43	14467.4
2021.89	14436.2
2023.36	14437.8
2024.82	14391.2
2026.28	14385
2027.74	14357.8
2029.2	14359
2030.66	14353.2
2032.12	14319.6
2033.58	14318.7
2035.04	14269.7
2036.49	14273.4
2037.95	14247
2039.41	14196.9
2040.87	14212.5
2042.33	14206.5
2043.78	14175.3
2045.24	14144.4
2045.76	14129.5
2047.22	14111.5
2048.69	14075.3
2050.15	14087.8
2051.61	14070.9
2053.07	14093.6
2054.54	14024.7
2056	14027.6
2057.46	14029.4
2058.92	14063.4
2060.38	14041.8
2061.84	14013.3
2063.3	13979.1
2064.76	13985.4
2066.22	14005.6
2067.68	14002.1
2069.14	13956.2
2070.6	13956.7
2072.06	13932.9
2073.52	13965.3
2074.98	13919.9
2076.44	13938.1
2077.89	13914.2
2079.35	13894.4
2080.81	13906.2
2082.27	13885
2083.72	13896
2085.18	13895.6
2086.63	13899.1
2088.09	13832.9
2089.55	13754.3
2091	13837.3
2092.46	13867.4
2093.91	13763.9
2095.37	13764.6
2096.82	13808.5
2098.28	13737.1
2099.73	13740.6
2101.18	13774.2
2102.64	13758.2
2104.09	13772.2
2105.54	13684.3
2106.99	13657.3
2108.45	13744.5
2109.9	13674.3
2111.35	13696.3
2112.8	13644.5
2114.25	13735.6
2115.71	13625.9
2117.16	13672.6
2118.61	13605
2120.06	13623.9
2121.51	13609
2122.96	13593.7
2124.4	13602.3
2125.85	13584.3
2127.3	13595.9
2128.75	13553.6
2130.2	13554.6
2131.65	13556.8
2133.09	13551.3
2134.54	13561.4
2135.99	13545.2
2137.44	13567.7
2138.88	13612.7
2140.33	13549.6
2141.78	13474.2
2143.22	13530.6
2144.67	13488.7
2146.11	13498.4
2147.56	13521
2149	13445.4
2150.45	13506.1
2151.89	13461.4
2153.34	13399.1
2154.78	13398.1
2156.22	13441.6
2157.67	13453.2
2159.11	13438.2
2160.55	13383.5
2162	13415.9
2163.44	13408.4
2164.88	13426.4
2166.32	13365.3
2167.76	13415.5
2169.2	13393.1
2170.64	13392.2
2172.09	13401.6
2173.53	13405
2174.97	13332.3
2176.41	13346.2
2177.85	13367
2179.29	13306.8
2180.72	13311.1
2182.16	13302.4
2183.6	13318.2
2185.04	13250.2
2186.48	13314.2
2187.92	13273.2
2189.35	13227.1
2190.79	13287.4
2192.23	13262.7
2193.66	13249.3
2195.1	13259.8
2196.54	13266.9
2197.97	13257.4
2199.41	13214.1
2200.84	13175.9
2202.28	13231
2203.71	13181.6
2205.15	13169.5
2206.58	13177.3
2208.02	13170.9
2209.45	13103.2
2210.88	13085.4
2212.32	13134.7
2213.75	13085.2
2215.18	13090.5
2216.62	13071
2218.05	13016.9
2219.48	13049.3
2220.91	13011.7
2222.34	13000.1
2223.78	12986.5
2225.21	12963.8
2226.64	12989.1
2228.07	12947.6
2229.5	12981.4
2230.93	12954
2232.36	12972.7
2233.79	12968.7
2235.22	12917.7
2236.65	12912
2238.07	12866.6
2239.5	12886.3
2240.93	12874.4
2242.36	12868.9
2243.79	12813.3
2245.21	12820
2246.64	12804
2248.07	12812.1
2249.49	12799
2250.92	12732
2252.35	12772.7
2253.77	12693.7
2255.2	12755.5
2256.62	12684.5
2258.05	12753.7
2259.47	12678.1
2260.9	12663.5
2262.32	12578
2263.75	12619.2
2265.17	12610.1
2266.59	12584.1
2268.02	12530.4
2269.44	12550
2270.86	12488.8
2272.29	12528.3
2273.71	12510.7
2275.13	12555.6
2276.55	12502.8
2277.97	12506.6
2279.39	12510.6
2280.81	12452.8
2282.24	12448.5
2283.66	12431.5
2285.08	12398.8
2286.5	12393.9
2287.92	12390.2
2289.34	12392.1
2290.75	12368.1
2292.17	12354.4
2293.59	12362.7
2295.01	12349.6
2296.43	12301.7
2297.85	12301.4
2299.26	12286.3
2300.68	12278.5
2302.1	12272.5
2303.51	12186.8
2304.93	12220.8
2306.35	12261.8
2307.76	12171.7
2309.18	12211.1
2310.6	12159.2
2312.01	12176.1
2313.43	12179.9
2314.84	12156.1
2316.25	12110
2317.67	12106.1
2319.08	12102.6
2320.5	12130.7
2321.91	12120.5
2323.32	12197.4
2324.74	12259.2
2326.15	12326.3
2327.56	12402.6
2328.98	12217.1
2330.39	12053.3
2331.8	11984.9
2333.21	11961.1
2334.62	11945.9
2336.03	11935.4
2337.44	11910
2338.85	11997.2
2340.26	11902.3
2341.67	11951
2343.08	11943.7
2344.49	11915.7
2345.9	11853.4
2347.31	11879.7
2348.72	11833.2
2350.13	11854.2
2351.54	11813.3
2352.94	11855.1
2354.35	11770.5
2355.76	11811.3
2357.17	11767
2358.57	11718.4
2359.98	11786.1
2361.39	11760
2362.79	11730
2364.2	11717.2
2365.6	11720.2
2367.01	11700.7
2368.41	11718.4
2369.82	11689.7
2371.22	11679.9
2372.63	11648.3
2374.03	11646.8
2375.44	11611.1
2376.84	11595.5
2378.24	11584.4
2379.65	11595
2381.05	11581.7
2382.45	11583.8
2383.85	11600.6
2385.26	11578.1
2386.66	11530.9
2388.06	11520.6
2389.46	11582.1
2390.86	11505
2392.26	11541.9
2393.66	11531.9
2395.06	11534.9
2396.46	11443.3
2397.86	11507.3
2399.26	11477.7
2400.66	11425.8
2402.06	11501.4
2403.46	11464.1
2404.86	11431.4
2406.26	11424.8
2407.66	11408.5
2409.05	11355.3
2410.45	11389.4
2411.85	11414.2
2413.24	11379.8
2414.64	11401.4
2416.04	11370.9
2417.43	11334.3
2418.83	11369.4
2420.23	11313.1
2421.62	11342.4
2423.02	11317.4
2424.41	11347.8
2425.81	11333.1
2427.2	11324
2428.6	11265.4
2429.99	11184.2
2431.38	11250.9
2432.78	11276.1
2434.17	11287.6
2435.56	11299.9
2436.96	11217.6
2438.35	11187.6
2439.74	11214.3
2441.13	11227.9
2442.53	11198.2
2443.92	11199.1
2445.31	11197.1
2446.7	11188.4
2448.09	11127
2449.48	11145.2
2450.87	11156.2
2452.26	11102.4
2453.65	11111.9
2455.04	11120.6
2456.43	11096.3
2457.82	11106.4
2459.21	11072.4
2460.6	11144.2
2461.98	11037.5
2463.37	11069.1
2464.76	10989.1
2466.15	11027
2467.53	11032.9
2468.92	10957.9
2470.31	11000.4
2471.7	11016.6
2473.08	10995.6
2474.47	10979.5
2475.85	10973.1
2477.24	10989.9
2478.63	10955.8
2480.01	10941.5
2481.39	10950.2
2482.78	10921.4
2484.16	10911.9
2485.55	10909.8
2486.93	10919.8
2488.32	10893.2
2489.7	10853.9
2491.08	10869.9
2492.46	10864.9
2493.85	10859.2
2495.23	10855.6
2496.61	10846.5
2497.99	10858.2
2499.38	10798.5
2500.76	10822.2
2502.14	10730.2
2503.52	10782.3
2504.9	10819.3
2506.28	10772.6
2507.66	10724.9
2509.04	10742.2
2510.42	10739.2
2511.8	10715.3
2513.18	10693.8
2514.56	10697.7
2515.94	10729.1
2517.31	10745.6
2518.69	10666
2520.07	10681.9
2521.45	10646.5
2522.82	10639.7
2524.2	10682.7
2525.58	10677.6
2526.96	10643.9
2528.33	10680.2
2529.71	10633.9
2531.09	10608.1
2532.46	10645.9
2533.84	10658.5
2535.21	10625.8
2536.59	10616.1
2537.96	10652.6
2539.34	10597.6
2540.71	10636.3
2542.08	10561.5
2543.46	10557.1
2544.83	10552.6
2546.2	10562.9
2547.58	10532.6
2548.95	10516.3
2550.32	10520.5
2551.7	10491
2553.07	10488.9
2554.44	10497.2
2555.81	10489.1
2557.18	10454.7
2558.55	10513.5
2559.92	10470.3
2561.29	10470.1
2562.66	10476.8
2564.03	10413.5
2565.4	10437
2566.77	10435.1
2568.14	10397
2569.51	10427.7
2570.88	10411.1
2572.25	10402.4
2573.62	10381.9
2574.99	10377.4
2576.35	10400
2577.72	10392.3
2579.09	10366.7
2580.46	10390.6
2581.82	10333.6
2583.19	10370.5
2584.56	10377.8
2585.92	10332.2
2587.29	10319
2588.65	10342.4
2590.02	10363.5
2591.38	10362.1
2592.75	10349.7
2594.11	10329
2595.48	10320.8
2596.84	10339.2
2598.21	10341.4
2599.57	10259.3
2600.93	10307.2
2602.3	10294.7
2603.66	10320.6
2605.02	10274.1
2606.39	10291.9
2607.75	10303.9
2609.11	10276.3
2610.47	10291.2
2611.83	10282.7
2613.19	10277.3
2614.56	10241.5
2615.92	10209.6
2617.28	10284.3
2618.64	10227.3
2620	10203.5
2621.36	10192.8
2622.72	10219.5
2624.08	10160.7
2625.44	10170.4
2626.8	10213.3
2628.15	10140.8
2629.51	10192
2630.87	10172.1
2632.23	10139.5
2633.59	10129.3
2634.94	10121.2
2636.3	10179.9
2637.66	10163.2
2639.01	10145
2640.37	10144.8
2641.73	10130.1
2643.08	10116.6
2644.44	10119.3
2645.79	10111.3
2647.15	10117.8
2648.5	10075.3
2649.86	10079.9
2651.21	10105.6
2652.57	10093.9
2653.92	10071.7
2655.28	10056.7
2656.63	10017.3
2657.98	10035.8
2659.33	10030.3
2660.69	10068.9
2662.04	10072.3
2663.39	10019.4
2664.75	10062.1
2666.1	10060.6
2667.45	10083.1
2668.8	10056.7
2670.15	10003.3
2671.5	10013.3
2672.85	9992.94
2674.2	10019
2675.55	9974.46
2676.9	9973.09
2678.25	10022.7
2679.6	9939.67
2680.95	9973.08
2682.3	9999.12
2683.65	9933.33
2685	9923.78
2686.35	9976.63
2687.7	9967.2
2689.04	9923.07
2690.39	9965.21
2691.74	9907.29
2693.09	9923.86
2694.43	9897.41
2695.78	9947.09
2697.13	9897.32
2698.47	9856.26
2699.82	9921.26
2701.16	9909.85
2702.51	9976.73
2703.85	9916.57
2705.2	9914.78
2706.54	9887.42
2707.89	9897.73
2709.23	9911.84
2710.58	9902.09
2711.92	9892.07
2713.26	9884.27
2714.61	9842.64
2715.95	9868.96
2717.29	9876.68
2718.64	9887.06
2719.98	9863.47
2721.32	9852.26
2722.66	9854.51
2724	9831.59
2725.35	9838.72
2726.69	9837.2
2728.03	9807.73
2729.37	9814.45
2730.71	9837.2
2732.05	9823.04
2733.39	9812.29
2734.73	9773.75
2736.07	9762.95
2737.41	9742.97
2738.75	9742.67
2740.09	9681.23
2741.42	9691.07
2742.76	9713.05
2744.1	9695.62
2745.44	9687.88
2746.78	9684.68
2748.11	9650.64
2749.45	9646.14
2750.79	9647.77
2752.12	9608.1
2753.46	9638.29
2754.8	9636.05
2756.13	9626.86
2757.47	9615.67
2758.81	9607.68
2760.14	9638.83
2761.47	9586.39
2762.81	9547.94
2764.14	9551.54
2765.48	9571.62
2766.81	9567.98
2768.15	9559.86
2769.48	9577.56
2770.81	9556.5
2772.15	9536.26
2773.48	9548.74
2774.81	9508.21
2776.14	9469.5
2777.48	9477.22
2778.81	9484.92
2780.14	9481.75
2781.47	9486.92
2782.8	9473.58
2784.13	9429.13
2785.47	9425.04
2786.8	9394.67
2788.13	9393.52
2789.46	9427.5
2790.79	9386.31
2792.12	9436.54
2793.44	9444.3
2794.77	9410.41
2796.1	9440.14
2797.43	9443.49
2798.76	9440.97
2800.09	9403.67
2801.42	9379.22
2802.74	9380
2804.07	9442.62
2805.4	9379.82
2806.73	9343
2808.05	9373.22
2809.38	9373.98
2810.71	9410.25
2812.03	9394.81
2813.36	9404.28
2814.68	9372.76
2816.01	9357.92
2817.33	9387.95
2818.66	9392.03
2819.98	9377.68
2821.31	9419.69
2822.63	9391.07
2823.96	9380.22
2825.28	9406.11
2826.6	9415.11
2827.93	9464.72
2829.25	9434.38
2830.57	9509
2831.9	9516.95
2833.22	9554
2834.54	9545.86
2835.86	9620.19
2837.19	9758.25
2838.51	9788.99
2839.83	9934.98
2841.15	10065.1
2842.47	10201.3
2843.79	10419.1
2845.11	10572.4
2846.43	10707.7
2847.75	10868
2849.07	10872.4
2850.39	10848.6
2851.71	10821.6
2853.03	10762.1
2854.35	10767.8
2855.66	10660.3
2856.98	10652.8
2858.3	10564.4
2859.62	10526.1
2860.94	10511
2862.25	10442.9
2863.57	10500
2864.89	10499.7
2866.2	10475.6
2867.52	10503.5
2868.84	10564.3
2870.15	10601.1
2871.47	10631
2872.78	10632
2874.1	10687.2
2875.41	10661.4
2876.73	10674.5
2878.04	10707.9
2879.36	10703.8
2880.67	10739.7
2881.98	10775.5
2883.3	10762.1
2884.61	10810.1
2885.92	10850.7
2887.24	10796.5
2888.55	10849.7
2889.86	10901.9
2891.18	10892.2
2892.49	10942
2893.8	10906
2895.11	10888.4
2896.42	10866.2
2897.73	10803.4
2899.04	10869.9
2900.35	10895.1
2901.67	10847.6
2902.97	10832.3
2904.29	10825.8
2905.59	10830.2
2906.9	10798.9
2908.21	10822
2909.52	10783
2910.83	10807
2912.14	10786.5
2913.45	10769.9
2914.76	10768.5
2916.06	10775.4
2917.37	10736.2
2918.68	10739.6
2919.99	10739
2921.29	10765.1
2922.6	10756.1
2923.91	10752.4
2925.21	10765.8
2926.52	10722.5
2927.82	10726.8
2929.13	10781.1
2930.44	10770.5
2931.74	10693.4
2933.05	10699.7
2934.35	10683.2
2935.65	10655.4
2936.96	10542.9
2938.26	10565.1
2939.57	10419.8
2940.87	10398.1
2942.17	10244.7
2943.48	10202.8
2944.78	10129.7
2946.08	10055.9
2947.38	9964.09
2948.69	9966.37
2949.99	9918.57
2951.29	9861.78
2952.59	9845.57
2953.89	9825.64
2955.19	9717.81
2956.49	9720.84
2957.8	9754.43
2959.1	9712.05
2960.4	9683.25
2961.7	9656.05
2962.99	9639.44
2964.29	9555.15
2965.59	9578.11
2966.89	9523.92
2968.19	9486.72
2969.49	9464.97
2970.79	9404.33
2972.09	9424.59
2973.38	9314.27
2974.68	9277.16
2975.98	9293.6
2977.28	9245.27
2978.57	9236.63
2979.87	9286.51
2981.17	9195.44
2982.46	9148.1
2983.76	9132.83
2985.05	9172.22
2986.35	9095.49
2987.65	9073.9
2988.94	9064.05
2990.24	9041.56
2991.53	9024.15
2992.82	8956.37
2994.12	8999.5
2995.41	8958.48
2996.71	8938.64
2998	8938.19
2999.29	8956.87
3000.59	8979.08
3001.88	8936.44
3003.17	8889.64
3004.47	8938.68
3005.76	8894.45
3007.05	8895.11
3008.34	8853.62
3009.63	8852.54
3010.92	8860.48
3012.21	8813.5
3013.5	8773.51
3014.8	8753.87
3016.09	8833.4
3017.38	8761.52
3018.67	8751.88
3019.96	8751.41
3021.25	8742.65
3022.54	8727.34
3023.82	8738.89
3025.11	8730.42
3026.4	8713.52
3027.69	8685.58
3028.98	8685.69
3030.27	8613.55
3031.55	8677.5
3032.84	8686.47
3034.13	8630.93
3035.42	8643.48
3036.7	8647.69
3037.99	8652.95
3039.28	8657.4
3040.56	8630.46
3041.85	8677.58
3043.13	8666.4
3044.42	8687.36
3045.7	8677.37
3046.99	8640.42
3048.27	8641.16
3049.56	8687.47
3050.84	8676.35
3052.13	8678
3053.41	8683.01
3054.69	8697.19
3055.98	8663.25
3057.26	8642.65
3058.54	8703.92
3059.83	8719.5
3061.11	8668.27
3062.39	8697.38
3063.67	8689.4
3064.95	8700.49
3066.24	8688.32
3067.52	8713.68
3068.8	8667.45
3070.08	8674.14
3071.36	8719.16
3072.64	8659.02
3073.92	8699.67
3075.2	8679.67
3076.48	8708.51
3077.76	8674.62
3079.04	8738.43
3080.32	8681.75
3081.6	8690.02
3082.88	8685.39
3084.16	8716.36
3085.44	8707.73
3086.71	8705.9
3087.99	8715.96
3089.27	8714.31
3090.55	8683.53
3091.82	8751.88
3093.1	8735.86
3094.38	8701.42
3095.65	8737.38
3096.93	8719.82
3098.21	8745.91
3099.48	8764.6
3100.76	8728.59
3102.03	8750.35
3103.31	8755.13
3104.58	8787.04
3105.86	8780
3107.13	8829.95
3108.41	8798.33
3109.68	8848.33
3110.96	8847.55
3112.23	8842.07
3113.5	8852.31
3114.78	8880.78
3116.05	8862.39
3117.32	8879.13
3118.59	8888.98
3119.87	8898.3
3121.14	8945.92
3122.41	8943.16
3123.68	8901.42
3124.95	8929.48
3126.23	8965.72
3127.5	8961.63
3128.77	8972.2
3130.04	9026.73
3131.31	9027.51
3132.58	8971.23
3133.85	8991.26
3135.12	9047
3136.39	9076.2
3137.66	9068.86
3138.93	9091.02
3140.2	9056.41
3141.46	9109.09
3142.73	9079.26
3144	9109.43
3145.27	9095.44
3146.54	9142.52
3147.8	9178.51
3149.07	9226.99
3150.34	9232.05
3151.6	9204.27
3152.87	9214.89
3154.14	9198.58
3155.4	9275.97
3156.67	9256.96
3157.94	9259.45
3159.2	9243.25
3160.47	9270.49
3161.73	9248.4
3163	9317.04
3164.26	9267.19
3165.53	9290.43
3166.79	9234.63
3168.05	9287.67
3169.32	9247.79
3170.58	9240.72
3171.84	9266.71
3173.11	9208.23
3174.37	9170.05
3175.63	9157.37
3176.9	9175.83
3178.16	9115.93
3179.42	9163.5
3180.68	9166.39
3181.94	9108.39
3183.21	9131.9
3184.47	9137.57
3185.73	9111.1
3186.99	9071.64
3188.25	9049.53
3189.51	9077.98
3190.77	9031.85
3192.03	9013.81
3193.29	8985.37
3194.55	9003.54
3195.81	8958.62
3197.07	8978.66
3198.33	8957.37
3199.58	8950.87
3200.84	8940.73
3202.1	8926.35
3203.36	8923.76
3204.62	8899.1
3205.87	8867.85
3207.13	8901.35
3208.39	8886.67
3209.65	8868.63
3210.9	8815.62
3212.16	8822.91
3213.41	8779.87
3214.67	8743.83
3215.93	8755.04
3217.18	8736.86
3218.44	8701.48
3219.69	8728.19
3220.95	8688.68
3222.2	8693.91
3223.46	8670.21
3224.71	8673.38
3225.97	8646.41
3227.22	8619.03
3228.47	8636.25
3229.73	8630.25
3230.98	8573.73
3232.23	8580.27
3233.48	8515.66
3234.74	8513.94
3235.99	8529.16
3237.24	8511.19
3238.49	8495.09
3239.75	8453.08
3241	8459.35
3242.25	8431.82
3243.5	8431.88
3244.75	8404.99
3246	8396.3
3247.25	8390.96
3248.5	8341.81
3249.75	8345.08
3251	8339.57
3252.25	8321.46
3253.5	8291.15
3254.75	8262.32
3256	8244.42
3257.25	8236.66
3258.49	8238.61
3259.74	8206.65
3260.99	8194.63
3262.24	8175.13
3263.49	8159.88
3264.73	8120.11
3265.98	8121.57
3267.23	8095.43
3268.47	8141.16
3269.72	8089.71
3270.97	8090.54
3272.21	8081.75
3273.46	8066.6
3274.7	8067.78
3275.95	8051.32
3277.2	8028.62
3278.44	7991.02
3279.69	7971.7
3280.93	7949.64
3282.17	7949.48
3283.42	7933.71
3284.66	7918.2
3285.91	7910.75
3287.15	7921.65
3288.39	7916.63
3289.64	7888.45
3290.88	7889.77
3292.12	7867.02
3292.31	7855.73
3293.56	7843.82
3294.8	7857.46
3296.05	7854.68
3297.3	7842.21
3298.55	7820.88
3299.79	7812.93
3301.04	7801.45
3302.29	7799.27
3303.54	7770.16
3304.78	7777.95
3306.03	7794.95
3307.27	7754.3
3308.52	7762.7
3309.76	7772.59
3311.01	7736.02
3312.26	7768.03
3313.5	7696.69
3314.75	7712.42
3315.99	7716.34
3317.23	7686.66
3318.48	7696.32
3319.72	7703.9
3320.97	7673.85
3322.21	7676.7
3323.45	7705.52
3324.7	7674.18
3325.94	7649.46
3327.18	7684.82
3328.42	7644.08
3329.67	7628.65
3330.91	7602.1
3332.15	7620.93
3333.39	7622.55
3334.63	7629.96
3335.87	7625.06
3337.12	7583.31
3338.36	7594.31
3339.6	7594.04
3340.84	7543.07
3342.08	7550.32
3343.32	7537.87
3344.56	7566.8
3345.8	7549.6
3347.04	7542.5
3348.27	7557.05
3349.51	7536.91
3350.75	7497.49
3351.99	7508.97
3353.23	7498.62
3354.47	7471.69
3355.7	7510.51
3356.94	7473.93
3358.18	7471.74
3359.42	7452.68
3360.65	7450.66
3361.89	7424.29
3363.13	7444.96
3364.36	7458.45
3365.6	7421.24
3366.83	7455.71
3368.07	7415.45
3369.31	7432.01
3370.54	7420.6
3371.78	7407.51
3373.01	7423.04
3374.25	7406.43
3375.48	7376.81
3376.71	7386.79
3377.95	7356.93
3379.18	7329.42
3380.42	7333.6
3381.65	7373.95
3382.88	7362.29
3384.12	7345.32
3385.35	7322.34
3386.58	7322.39
3387.81	7317.78
3389.04	7310.32
3390.28	7301.38
3391.51	7295.83
3392.74	7305.91
3393.97	7246.15
3395.2	7289
3396.43	7245.94
3397.67	7302.82
3398.9	7241.72
3400.13	7227.8
3401.36	7238.14
3402.58	7215.72
3403.82	7226.84
3405.05	7206.38
3406.27	7153.86
3407.5	7184.11
3408.73	7158.75
3409.96	7146.74
3411.19	7142.94
3412.42	7118.08
3413.64	7148.49
3414.87	7143.82
3416.1	7111.78
3417.33	7102.77
3418.55	7083.1
3419.78	7081.62
3421.01	7039.43
3422.23	7060.86
3423.46	7018.88
3424.69	6983.47
3425.91	7007.04
3427.14	6938.19
3428.36	6964.58
3429.59	6954.22
3430.81	6922.81
3432.04	6946.89
3433.26	6891.42
3434.49	6942.96
3435.71	6924.98
3436.94	6903.59
3438.16	6855.05
3439.39	6839.02
3440.61	6808.51
3441.83	6821.25
3443.05	6791.84
3444.28	6759.09
3445.5	6803.51
3446.72	6732.08
3447.95	6703.12
3449.17	6708.92
3450.39	6736.17
3451.61	6668.27
3452.83	6660.9
3454.05	6643.42
3455.27	6638.78
3456.5	6615.95
3457.71	6598.47
3458.94	6596.05
3460.16	6570.96
3461.38	6546.93
3462.59	6534.29
3463.81	6514.5
3465.03	6516.81
3466.25	6484.5
3467.47	6479.24
3468.69	6470.85
3469.91	6427.27
3471.13	6373.14
3472.35	6362.65
3473.56	6344.41
3474.78	6319.54
3476	6307.21
3477.22	6271.26
3478.43	6235.32
3479.65	6220.69
3480.87	6212.58
3482.08	6194.66
3483.3	6152.46
3484.52	6131.71
3485.73	6139.13
3486.95	6064.9
3488.16	6072.55
3489.38	6035.57
3490.59	6016.94
3491.81	6010.15
3493.02	5997.83
3494.24	5992.56
3495.45	5942.08
3496.67	5922.11
3497.88	5890.53
3499.09	5889.33
