#Acq. time (s)=	10
#Accumulations=	10
#Range (cm-¹)=	400...3500
#Windows=	3
#Auto scanning=	Off
#Autofocus=	Off
#AutoExposure=	Off
#Spike filter=	Multiple accum.
#Delay time (s)=	0
#Binning=	1
#Readout mode=	Signal
#DeNoise=	Off
#ICS correction=	On
#Dark correction=	Off
#Inst. Process=	Off
#Detector Gain=	Best Dynamic Range
#Detector ADC=	45 kHz       
#Detector temperature (°C)=	-60.1
#Instrument=	LabRAM HR Evol
#Detector=	Syncerity OE
#Objective=	x50_VIS_LWD
#Grating=	600 (500nm)
#ND Filter=	50%
#Laser=	532nm_Edge
#Hole=	199.981
#Range=	Visible
#E-Cal_Neon=	0
#StageXY=	75x50mm Scan+
#StageZ=	Z motor
#X (µm)=	0
#Y (µm)=	0
#Z (µm)=	245.6
#Spectral res.(cm-¹)=	12.8
#Full time(mm:ss)=	5:18
#AC=	Calibrated 2025-07-01 10:31
#Project=	
#Sample=	
#Site=	
#Title=	D_4
#Remark=	
#Date=	01.07.2025 11:36 (India Standard Time)
#Acquired=	01.07.2025 11:36:20 (India Standard Time)
#AxisType[0]=Intens
#AxisUnit[0]=Cnt
#AxisType[1]=Spectr
#AxisUnit[1]=1/cm
400.083	26571.2
401.858	26405.5
403.63	26340.2
405.405	26393.5
407.176	26437.2
408.949	26355.3
410.72	26422.1
412.493	26372.9
414.263	26407.1
416.033	26448
417.805	26452.2
419.574	26416
421.345	26332.6
423.114	26472.1
424.884	26426.7
426.652	26450.3
428.421	26399.3
430.188	26452.8
431.955	26475.5
433.724	26446.5
435.49	26405.6
437.258	26445.3
439.023	26399.6
440.788	26377.3
442.555	26328.8
444.32	26324.7
446.084	26337
447.85	26330.3
449.613	26274.7
451.376	26264.4
453.141	26152
454.904	26262
456.666	26260.6
458.429	26230.6
460.191	26305.2
461.952	26081.8
463.715	26267.5
465.475	26195.5
467.235	26155.1
468.995	26190.1
470.756	26136.8
472.515	26145.3
474.274	26153.2
476.032	26186.1
477.793	26139.9
479.55	26176.3
481.308	26111.3
483.065	26151
484.823	26132.3
486.58	26111.1
488.336	26084.8
490.091	26184.8
491.847	26160.3
493.604	26015.3
495.358	26061.4
497.113	26122.5
498.867	26218.3
500.62	26153.7
502.374	26210.8
504.127	26231.5
505.881	26225.8
507.634	26258.4
509.386	26238.5
511.137	26226
512.888	26240.7
514.639	26331
516.39	26307.8
518.14	26215
519.89	26105.1
521.642	26129.9
523.391	26144.6
525.14	26079.8
526.889	26085.6
528.637	26020.6
530.385	26061.6
532.133	25999.5
533.88	26023.1
535.627	26051.6
537.373	25989.1
539.12	26060.9
540.866	25947.7
542.611	25881.7
544.357	25966.5
546.101	25905.8
547.846	25944.6
549.59	25841.7
551.334	25874.9
553.078	25883.5
554.821	25930.1
556.564	25923.8
558.307	25865.2
560.049	25886.4
561.789	25889.2
563.53	25870.1
565.272	25887.1
567.013	25840.8
568.753	25857.6
570.494	25910.8
572.233	25847.7
573.973	25935.8
575.712	25953.8
577.449	25826.1
579.188	25917.9
580.926	25864.7
582.664	25918.4
584.402	25937.8
586.139	25841.1
587.876	25860.1
589.611	25954.6
591.347	25839.7
593.083	25845
594.818	25949.7
596.554	25889.9
598.287	25912.6
600.021	25942.7
601.756	25905
603.49	25883.3
605.221	25920
606.955	25882.3
608.688	25840.3
610.42	25856.7
612.15	25801.6
613.882	25752.6
615.614	25779.8
617.345	25730.9
619.074	25702.9
620.805	25625.7
622.535	25639.3
624.263	25611.8
625.993	25587
627.722	25523.7
629.45	25502.9
631.178	25545.5
632.907	25504.3
634.633	25508.9
636.36	25497.3
638.088	25531.7
639.813	25554.3
641.539	25670.5
643.264	25527.8
644.99	25408.9
646.716	25384.5
648.439	25428
650.164	25384.3
651.887	25391.1
653.611	25487.8
655.335	25371.2
657.057	25402.3
658.781	25423.8
660.502	25342.3
662.225	25364.6
663.945	25360.5
665.667	25374.3
667.387	25387
669.108	25362.7
670.828	25385.1
672.548	25349.7
674.267	25368.6
675.987	25226
677.705	25339.6
679.424	25356.8
681.142	25342.9
682.86	25392.8
684.577	25398.4
686.293	25353.2
688.011	25331.4
689.727	25373.4
691.444	25407.1
693.159	25408.8
694.875	25299.1
696.59	25459.6
698.304	25419.1
700.019	25380.6
701.733	25322
703.448	25389.6
705.16	25368
706.872	25282
708.586	25319.2
710.298	25244.4
712.01	25223.2
713.723	25262.7
715.433	25220.6
717.144	25263.6
718.856	25241.6
720.565	25326.8
722.275	25262.3
723.984	25279.2
725.695	25233.4
727.403	25290.1
729.111	25212.3
730.821	25200
732.528	25153.4
734.235	25180.3
735.942	25191.7
737.651	25120.5
739.357	25159
741.063	25064.2
742.768	25158
744.474	25051.8
746.18	25120.9
747.885	25108.4
749.589	25151.2
751.293	25082.4
752.997	25110.1
754.702	25222.2
756.405	25201.4
758.108	25198.9
759.81	25226.9
761.512	25133.7
763.214	25125.9
764.915	25151.7
766.618	25177.7
768.319	25165.3
770.019	25278.8
771.719	25222.5
773.419	25177.4
775.118	25180.1
776.817	25282.5
778.516	25162.5
780.214	25271.4
781.913	25238.7
783.61	25247.4
785.308	25290.7
787.005	25178.7
788.702	25249.3
790.398	25132.2
792.095	25081.8
793.791	25072.4
795.486	25119.9
797.181	25099.1
798.876	25221.9
800.571	25129
802.265	25167.6
803.959	25186.7
805.653	25175
807.346	25030
809.039	25093.4
810.732	25068.8
812.424	25091
814.116	25042.5
815.808	24985.9
817.5	25081.3
819.191	25084.5
820.881	25162.6
822.572	25195
824.26	25221.7
825.95	25280.3
827.639	25243
829.329	25199
831.018	25229.2
832.706	25279.8
834.394	25248.1
836.08	25242.4
837.768	25211.7
839.455	25244.6
841.142	25285.4
842.829	25347.8
844.513	25455.3
846.199	25400.5
847.885	25386.2
849.57	25388
851.255	25363
852.938	25363.4
854.623	25412.4
856.307	25360.2
857.991	25376
859.672	25459.5
861.355	25398.8
863.038	25461.8
864.719	25414.4
866.401	25461.1
868.083	25486.2
869.765	25395.6
871.444	25449.8
873.125	25465.9
874.806	25542.4
876.484	25517.3
878.164	25482.3
879.844	25393.5
881.521	25275.6
883.2	25324.7
884.877	25376.7
886.555	25330.7
888.234	25371
889.909	25376.1
891.587	25328.2
893.262	25230.7
894.939	25143.4
896.616	25135.3
898.29	25088.1
899.966	25076.3
901.64	24955.9
903.315	24979.2
904.988	24894.1
906.663	24856.6
908.335	24870.7
910.009	24811.7
911.683	24848.6
913.354	24787.2
915.027	24822
916.698	24762.9
918.369	24740.6
920.041	24787.9
921.711	24700.2
923.383	24752.7
925.052	24708.8
926.723	24601.2
928.391	24512.7
930.062	24523.6
931.73	24540.6
933.399	24462.6
935.067	24545.5
936.734	24510.8
938.403	24542.4
940.069	24526.7
941.737	24554.7
943.403	24658.4
945.069	24570.5
946.736	24626.1
948.401	24576
950.065	24574.5
951.732	24592.8
953.396	24637.1
955.059	24674.6
956.725	24593.4
958.388	24623.1
960.051	24619.7
961.715	24704.3
963.377	24690.2
965.039	24684.6
966.7	24597.7
968.364	24599.6
970.025	24500.4
971.685	24487.7
973.345	24498.3
975.007	24539.8
976.667	24447.1
978.326	24390.8
979.985	24477.6
981.646	24520.3
983.304	24570.8
984.963	24534.3
986.62	24614.6
988.278	24591.7
989.935	24627.7
991.594	24701
993.25	24761.9
994.907	24899.2
996.563	25061.3
998.218	25233.9
999.874	25398
1001.53	25533.7
1003.19	25507.7
1004.84	25511.8
1006.49	25301.7
1008.15	25131.8
1009.8	24996.8
1011.45	24924.4
1013.11	24802.5
1014.76	24770.6
1016.41	24695.1
1018.06	24734.8
1019.72	24722.5
1021.37	24620.9
1023.02	24591.3
1024.67	24595.3
1026.32	24537.9
1027.97	24487.9
1029.62	24464
1031.27	24452.6
1032.92	24442.3
1034.57	24312.6
1036.22	24389.6
1037.86	24357.4
1039.51	24305.9
1041.16	24396.9
1042.81	24294.3
1044.45	24304.2
1046.1	24272.3
1047.75	24287
1049.39	24291.6
1051.04	24301.1
1052.68	24326
1054.33	24457.2
1055.97	24495.2
1057.62	24604.3
1059.26	24689
1060.91	24759.7
1062.55	24781
1064.19	24738.4
1065.83	24630
1067.48	24641.5
1069.12	24570.6
1070.76	24521.6
1072.4	24661
1074.04	24531.6
1075.68	24639.4
1077.32	24629.1
1078.97	24644.9
1080.61	24662.9
1082.24	24652.6
1083.88	24599.1
1085.52	24582.7
1087.16	24554.4
1088.8	24487.6
1090.44	24392.3
1092.08	24347.2
1093.71	24283.6
1095.35	24169.7
1096.99	24177.5
1098.62	24130.2
1100.26	24022.2
1101.9	23983.8
1103.53	23919.1
1105.17	23897.2
1106.8	23919.1
1108.44	23971.1
1110.07	23995.7
1111.7	24017.2
1113.34	24067.8
1114.97	24134.5
1116.6	24176.3
1118.23	24191.1
1119.87	24302.7
1121.5	24283.5
1123.13	24325.7
1124.76	24294.8
1126.39	24265.9
1128.03	24252.1
1129.65	24117.9
1131.29	24079.6
1132.91	23928.3
1134.54	23936.9
1136.17	23893.9
1137.8	23888.5
1139.43	23947.9
1141.06	23989.6
1142.69	24149.1
1144.31	24320.4
1145.94	24575.3
1147.57	24842.5
1149.19	25234.3
1150.82	25774.7
1152.45	26145.8
1154.07	26559.4
1155.7	26592.7
1157.32	26325.5
1158.95	25855.4
1160.57	25277.1
1162.2	24723.3
1163.82	24328.2
1165.44	23899.6
1167.07	23831.9
1168.69	23735.7
1170.31	23634.2
1171.94	23565
1173.56	23531.9
1175.18	23536.9
1176.8	23434.3
1178.42	23404.3
1180.04	23385.7
1181.66	23489.6
1183.28	23417.7
1184.9	23491
1186.52	23461
1188.14	23496.6
1189.76	23606.2
1191.38	23423.6
1192.99	23475.8
1194.61	23397.3
1196.23	23297.5
1197.85	23274.1
1199.46	23155.9
1201.08	23047.2
1202.7	23057.2
1204.31	22982.4
1205.93	23043.4
1207.54	23048.7
1209.16	23053.5
1210.78	23064.2
1212.39	22955.3
1214	22915.6
1215.62	22916.4
1217.23	22763.9
1218.84	22795.8
1220.46	22725.9
1222.07	22765.9
1223.68	22744.4
1225.29	22746
1226.91	22775.4
1228.52	22785.5
1230.13	22765.7
1231.74	22705
1233.35	22706.6
1234.96	22698.3
1236.57	22744.5
1238.18	22782
1239.79	22811.1
1241.4	22871.6
1243	22857.3
1244.61	22876.2
1246.22	22893.7
1247.83	22959.4
1249.43	22912.2
1251.04	22952.8
1252.65	22888.2
1254.25	23032.9
1255.86	22930.7
1257.47	23070.7
1259.07	23013.3
1260.68	23051.3
1262.28	23032.7
1263.89	23116.4
1265.49	23154.3
1267.09	23097.2
1268.7	22987.1
1270.3	22991.1
1271.9	22961.1
1273.51	22872.2
1275.11	22808.2
1276.71	22813.9
1278.31	22764.1
1279.91	22848.3
1281.52	22787.3
1283.12	22734.5
1284.72	22755.9
1286.32	22782.3
1287.92	22834.1
1289.52	22962.2
1291.12	23112.4
1292.72	23257.8
1294.31	23440.4
1295.91	23600.5
1297.51	23594.2
1299.11	23537.8
1300.71	23537
1302.3	23527.4
1303.9	23379.8
1305.5	23360.2
1307.09	23179.7
1308.69	23093.3
1310.28	23002
1311.88	22872.1
1313.47	22700.3
1315.07	22622.3
1316.66	22458.2
1318.26	22504.9
1319.85	22344.3
1321.44	22309.5
1323.04	22245.9
1324.63	22216
1326.22	22148.4
1327.82	22155.6
1329.41	22205.5
1331	22048
1332.59	22042.7
1334.18	22070.6
1335.77	22126.6
1337.36	22027.9
1338.95	22004
1340.54	21993.6
1342.13	21929.3
1343.72	21968.2
1345.31	21902.3
1346.9	21838.4
1348.49	21894.5
1350.07	21896.1
1351.66	21831.7
1353.25	21829.9
1354.84	21715.7
1356.42	21746.3
1358.01	21700.5
1359.6	21750.5
1361.18	21646.8
1362.77	21650.4
1364.35	21646.5
1365.94	21630.9
1367.52	21535.5
1369.11	21503.5
1370.69	21489.6
1372.28	21486
1373.86	21486.2
1375.44	21359.3
1377.02	21270.6
1378.61	21279.7
1380.19	21276.7
1381.77	21186.9
1383.35	21129
1384.93	21211.2
1386.52	21145.5
1388.1	21151.4
1389.68	21221.9
1391.26	21142.6
1392.84	21131.5
1394.41	21133.2
1396	21112.3
1397.57	21090.1
1399.15	21061.2
1400.73	21043.5
1402.31	21110.1
1403.89	21043.5
1405.46	21038.5
1407.04	21061.9
1408.62	21140
1410.19	21099.2
1411.77	21113.3
1413.35	21201.4
1414.92	21253.4
1416.5	21299.4
1418.07	21342.1
1419.65	21498.4
1421.22	21432.1
1422.8	21438.8
1424.37	21538.2
1425.94	21729.8
1427.52	21798.4
1429.09	22092.2
1430.66	22425.1
1432.23	22687.3
1433.8	23035
1435.38	23333.9
1436.95	23512.4
1438.52	23518
1440.09	23534.1
1441.66	23371.4
1443.23	23310.1
1444.8	23123.2
1446.37	23063.2
1447.94	22944.5
1449.51	22925.7
1451.08	22814.7
1452.65	22720
1454.22	22600.6
1455.78	22526
1457.35	22475.6
1458.92	22401.2
1460.48	22224.3
1462.05	22076.4
1463.62	21927.9
1465.18	21842.9
1466.75	21638.6
1468.31	21437
1469.88	21295
1471.44	21107.5
1473.01	21008.9
1474.57	20827
1476.14	20760.7
1477.7	20564.3
1479.26	20537.4
1480.83	20542.8
1482.39	20428.6
1483.95	20432.7
1485.51	20359.2
1487.08	20386.7
1488.64	20405.3
1490.2	20377.4
1491.76	20393.5
1493.32	20412.8
1494.88	20481.4
1496.44	20522.9
1498	20555.8
1499.56	20584.9
1501.12	20672.6
1502.68	20710.9
1504.24	20909.4
1505.8	21059.6
1507.35	21208.9
1508.91	21452
1510.47	21683.4
1512.03	21980.4
1513.58	22279.1
1515.14	22522.6
1516.69	22821.2
1518.25	22970
1519.81	23029
1521.36	23052.6
1522.92	22929.5
1524.47	22695.1
1526.03	22394.5
1527.58	21975.2
1529.13	21542.1
1530.69	21221.8
1532.24	20824.3
1533.79	20494.2
1535.35	20189.2
1536.9	20020.2
1538.45	19987.3
1540	19813
1541.55	19828.8
1543.11	19740.8
1544.66	19644.8
1546.21	19601
1547.76	19557.5
1549.31	19550
1550.86	19432.3
1552.41	19467.9
1553.96	19425.9
1555.5	19389.2
1557.05	19328.4
1558.6	19351.3
1560.15	19278.3
1561.7	19313.7
1563.24	19353.7
1564.79	19288.7
1566.34	19356.9
1567.88	19325.3
1569.43	19278.5
1570.98	19281.3
1572.52	19272.6
1574.07	19266.6
1575.61	19222.6
1577.16	19203
1578.7	19222.9
1580.25	19212.5
1581.79	19277.2
1583.34	19245.3
1584.88	19145.5
1586.42	19247.7
1587.96	19134.7
1589.51	19183.9
1591.05	19197.1
1592.59	19086.3
1594.13	19106.6
1595.67	19141.2
1597.21	19195.1
1598.76	19116.5
1600.3	19180.4
1601.83	19078.3
1603.37	19098.8
1604.92	18971.4
1606.45	19006.7
1607.99	19030.6
1609.53	18992.6
1611.07	18941.8
1612.61	18884.5
1614.15	18895
1615.68	18870.7
1617.22	18859.5
1618.76	18877
1620.29	18780.1
1621.83	18805
1623.37	18833.8
1624.9	18764.1
1626.44	18788.3
1627.97	18786.9
1629.51	18848.8
1631.04	18781
1632.58	18842.4
1634.11	18876.9
1635.64	18859.3
1637.18	18800.3
1638.71	18928.1
1640.24	18915.7
1641.78	18946.1
1643.31	19039.8
1644.84	19101.3
1646.37	19214.9
1647.9	19343
1649.44	19533.7
1650.97	19624.4
1652.5	19648.1
1654.03	19635
1655.56	19532.1
1657.09	19397.9
1658.62	19172.5
1660.14	19019.1
1661.67	18947.3
1663.2	18900.6
1664.73	18809.6
1666.26	18732.3
1667.79	18731
1669.31	18664.2
1670.84	18563.8
1672.37	18485.2
1673.89	18490.1
1675.42	18374.6
1676.95	18311
1678.47	18219.3
1680	18185.2
1681.52	18133.9
1683.05	18083.4
1684.57	18015.7
1686.1	18020.9
1687.62	17959.8
1689.14	17902.4
1690.67	17979.2
1692.19	17827.6
1693.71	17870
1695.23	17854.5
1696.76	17742.2
1698.28	17696.2
1699.8	17599.2
1701.32	17633.3
1702.84	17624.9
1704.36	17628.8
1705.88	17533.3
1707.4	17540.9
1708.92	17509.4
1710.44	17444.9
1711.96	17474.3
1713.48	17452.4
1715	17434
1716.52	17410.6
1718.04	17371.9
1719.56	17355.2
1721.07	17322.8
1722.59	17290
1724.11	17386.5
1725.63	17379.3
1727.14	17376.7
1728.66	17347.6
1730.17	17403.2
1731.69	17377.3
1733.2	17449.8
1734.72	17512.3
1736.23	17469.8
1737.75	17532
1739.26	17581.1
1740.78	17570.7
1742.29	17561.9
1743.8	17541.4
1745.32	17516.6
1746.83	17468.4
1748.34	17514
1749.86	17408.3
1751.37	17361.5
1752.88	17275.7
1754.39	17173.7
1755.9	17087.1
1757.41	17024.5
1758.92	17002.8
1760.43	16926.5
1761.94	16859.4
1763.45	16877.4
1764.96	16817.3
1766.47	16842.6
1767.98	16771
1769.49	16755.8
1771	16750.3
1772.5	16794.5
1774.01	16766.9
1775.52	16735.1
1777.03	16669.9
1778.53	16673.3
1780.04	16628.4
1781.55	16635.2
1783.05	16616.7
1784.56	16634.8
1786.06	16627
1787.57	16612.3
1789.07	16648.6
1790.58	16583
1792.08	16534.9
1793.59	16579.4
1795.09	16551
1796.59	16535.5
1798.1	16486.7
1799.6	16415
1801.1	16451.8
1802.61	16352.1
1804.11	16381.1
1805.61	16392.2
1807.11	16390.3
1808.61	16358.8
1810.11	16344.4
1811.61	16282.2
1813.11	16309.3
1814.61	16285.3
1816.11	16301.7
1817.61	16277.4
1819.11	16246.3
1820.61	16226.5
1822.11	16238.4
1823.61	16201.6
1825.11	16133.9
1826.6	16175.9
1828.1	16120.8
1829.6	16168.8
1831.1	16118.8
1832.59	16116.2
1834.09	16123.5
1835.59	16080.7
1837.08	16066.9
1838.58	15986.8
1840.07	16028.1
1841.57	16086.5
1843.06	16068
1844.56	16064.7
1846.05	15979.5
1847.54	16003.1
1849.04	15973.6
1850.53	15986.3
1852.02	15875.2
1853.52	15852
1855.01	15878.8
1856.5	15867
1857.99	15830.5
1859.49	15827.5
1860.98	15834.2
1862.47	15830.5
1863.96	15841.2
1865.45	15781.2
1866.94	15775.5
1868.43	15767.6
1869.92	15792.2
1871.41	15710.8
1872.9	15720.4
1874.39	15749.5
1875.88	15740.1
1877.37	15745.7
1878.85	15666.7
1880.34	15630.2
1881.83	15637.7
1883.32	15598.9
1884.8	15552.3
1886.29	15550.5
1887.78	15501.8
1889.26	15523.4
1890.75	15521.8
1892.23	15519.7
1893.72	15434.9
1895.21	15401.8
1896.69	15384.8
1898.17	15393.6
1899.66	15362.9
1901.14	15342.1
1902.63	15335.3
1904.11	15180.7
1905.59	15142
1907.08	15113.8
1908.56	15131.2
1910.04	15024.4
1911.52	15049.7
1913	14990.5
1914.49	14905
1915.97	14919.5
1917.45	14852.5
1918.93	14792
1920.41	14794.8
1921.89	14794.6
1923.37	14654.8
1924.85	14646.2
1926.33	14632.7
1927.81	14582.2
1929.29	14558.4
1930.76	14533
1932.24	14491.6
1933.72	14463.6
1935.2	14424.6
1936.67	14380.6
1938.15	14309.4
1939.63	14279.1
1941.1	14245.5
1942.58	14216.5
1944.06	14205.1
1945.53	14122.9
1947.01	14089.8
1948.48	14059.8
1949.96	14041.6
1951.43	13955.1
1952.91	13915.7
1954.38	13901.2
1955.86	13829
1957.33	13779.3
1958.8	13733.9
1960.27	13754.3
1961.75	13706.6
1963.22	13657.1
1964.69	13656
1966.16	13607.5
1967.64	13575.9
1969.11	13534.2
1970.58	13487.5
1972.05	13441.9
1973.52	13412.4
1974.99	13392.9
1976.46	13360.4
1977.93	13363.5
1979.4	13341.3
1980.87	13256.8
1982.34	13246.4
1983.81	13209
1985.27	13153.8
1986.74	13194.8
1988.21	13121.5
1989.68	13088.1
1991.14	13037.9
1992.61	13008.8
1994.08	12967.7
1995.55	12918
1997.01	12881.2
1998.48	12845.3
1999.94	12818.3
2001.41	12767.4
2002.87	12744.5
2004.34	12719.9
2005.8	12709.7
2007.27	12704.4
2008.73	12670
2010.19	12651.4
2011.66	12621.3
2013.12	12607.1
2014.58	12578.6
2016.05	12550.5
2017.51	12510.5
2018.97	12447.2
2020.43	12435.7
2021.89	12406.5
2023.36	12359.3
2024.82	12318.9
2026.28	12323.6
2027.74	12309.8
2029.2	12287.9
2030.66	12269.1
2032.12	12241.1
2033.58	12207.1
2035.04	12179.4
2036.49	12158.2
2037.95	12130
2039.41	12095.8
2040.87	12124.3
2042.33	12103.4
2043.78	12072.7
2045.24	12060.3
2045.76	12053.1
2047.22	12029.7
2048.69	11994.7
2050.15	11994.4
2051.61	11982.2
2053.07	11950.5
2054.54	11991.6
2056	11902
2057.46	11936.2
2058.92	11927.4
2060.38	11904.9
2061.84	11883.4
2063.3	11925.4
2064.76	11896
2066.22	11904.4
2067.68	11899
2069.14	11855.8
2070.6	11860.2
2072.06	11827.2
2073.52	11807.6
2074.98	11817.5
2076.44	11809.5
2077.89	11839.6
2079.35	11780.3
2080.81	11782.9
2082.27	11745.3
2083.72	11769.9
2085.18	11711.8
2086.63	11784.5
2088.09	11706.1
2089.55	11716.4
2091	11699.3
2092.46	11716.8
2093.91	11670
2095.37	11667.3
2096.82	11631.1
2098.28	11654.7
2099.73	11649.9
2101.18	11580.8
2102.64	11625.5
2104.09	11615.2
2105.54	11579.7
2106.99	11580.9
2108.45	11593.2
2109.9	11557
2111.35	11494.2
2112.8	11515.1
2114.25	11526.8
2115.71	11517
2117.16	11546.9
2118.61	11531.3
2120.06	11518.8
2121.51	11525.1
2122.96	11486.1
2124.4	11502.4
2125.85	11471.8
2127.3	11466
2128.75	11441.1
2130.2	11420.4
2131.65	11426.9
2133.09	11398.2
2134.54	11393.5
2135.99	11391.4
2137.44	11424.7
2138.88	11429.5
2140.33	11393.9
2141.78	11377.7
2143.22	11361.1
2144.67	11335.6
2146.11	11376.1
2147.56	11358.9
2149	11361
2150.45	11343.2
2151.89	11340.4
2153.34	11262.7
2154.78	11315.3
2156.22	11303
2157.67	11300.1
2159.11	11335.4
2160.55	11294.2
2162	11261
2163.44	11265
2164.88	11230.2
2166.32	11230
2167.76	11282.4
2169.2	11249
2170.64	11255.8
2172.09	11195.8
2173.53	11231.2
2174.97	11227.6
2176.41	11166.3
2177.85	11162.9
2179.29	11162.9
2180.72	11157.7
2182.16	11166.8
2183.6	11118.2
2185.04	11182.3
2186.48	11111.5
2187.92	11080.7
2189.35	11084.1
2190.79	11130.5
2192.23	11079.5
2193.66	11046.3
2195.1	11071.7
2196.54	11052.7
2197.97	11047.7
2199.41	11033.8
2200.84	11034.6
2202.28	10978.7
2203.71	10965.7
2205.15	11004.6
2206.58	10959.1
2208.02	10964.6
2209.45	10973
2210.88	10954.8
2212.32	10918.6
2213.75	10916.1
2215.18	10916.5
2216.62	10908.5
2218.05	10910.9
2219.48	10836.8
2220.91	10841.7
2222.34	10817.8
2223.78	10817.4
2225.21	10759.5
2226.64	10748.3
2228.07	10746.7
2229.5	10759.7
2230.93	10784.7
2232.36	10794.8
2233.79	10718.4
2235.22	10730.4
2236.65	10741.9
2238.07	10723.7
2239.5	10726
2240.93	10698.2
2242.36	10643.1
2243.79	10639.1
2245.21	10654.7
2246.64	10635
2248.07	10637.7
2249.49	10610.6
2250.92	10608.7
2252.35	10593.9
2253.77	10583.4
2255.2	10542.3
2256.62	10532.9
2258.05	10505.3
2259.47	10462.7
2260.9	10457.5
2262.32	10444.3
2263.75	10458.3
2265.17	10422.3
2266.59	10424.5
2268.02	10364.8
2269.44	10381.4
2270.86	10364.6
2272.29	10380.1
2273.71	10326.4
2275.13	10338.6
2276.55	10302.1
2277.97	10341.5
2279.39	10328.1
2280.81	10253.2
2282.24	10328
2283.66	10232.9
2285.08	10241.9
2286.5	10255
2287.92	10242.5
2289.34	10206.8
2290.75	10176.4
2292.17	10175.3
2293.59	10202.4
2295.01	10155
2296.43	10125.4
2297.85	10145.8
2299.26	10128.5
2300.68	10158
2302.1	10071.6
2303.51	10065.3
2304.93	10098.5
2306.35	10050.2
2307.76	10086.2
2309.18	10039.6
2310.6	10068
2312.01	10019.1
2313.43	10007.7
2314.84	10033.3
2316.25	10016.4
2317.67	9977.48
2319.08	9935.43
2320.5	9928.81
2321.91	9966.19
2323.32	9934.4
2324.74	9986.12
2326.15	10058.3
2327.56	10118.4
2328.98	10210.5
2330.39	10118.6
2331.8	9944.25
2333.21	9850.03
2334.62	9806.77
2336.03	9814.16
2337.44	9787.21
2338.85	9731.03
2340.26	9790.93
2341.67	9793.01
2343.08	9772.65
2344.49	9723.92
2345.9	9718.8
2347.31	9741.46
2348.72	9717.38
2350.13	9670.94
2351.54	9680.12
2352.94	9673.14
2354.35	9657.24
2355.76	9632.42
2357.17	9624.33
2358.57	9585.78
2359.98	9561.04
2361.39	9577.38
2362.79	9524.14
2364.2	9511.66
2365.6	9565.56
2367.01	9537.65
2368.41	9496.08
2369.82	9510.73
2371.22	9493.17
2372.63	9467.73
2374.03	9472.05
2375.44	9404.02
2376.84	9458.69
2378.24	9460.23
2379.65	9464.18
2381.05	9421.87
2382.45	9417.08
2383.85	9403.69
2385.26	9389.8
2386.66	9414.6
2388.06	9386.8
2389.46	9382.4
2390.86	9331.08
2392.26	9374.93
2393.66	9351.28
2395.06	9352.06
2396.46	9327.52
2397.86	9315.63
2399.26	9301.67
2400.66	9299.17
2402.06	9281.2
2403.46	9274.19
2404.86	9362.65
2406.26	9338.78
2407.66	9241.03
2409.05	9270.93
2410.45	9219.28
2411.85	9221.63
2413.24	9206.5
2414.64	9184.25
2416.04	9205.12
2417.43	9185.35
2418.83	9211.92
2420.23	9167.7
2421.62	9131.61
2423.02	9150.4
2424.41	9103.46
2425.81	9097.8
2427.2	9119.39
2428.6	9107.85
2429.99	9106.6
2431.38	9082.93
2432.78	9083.9
2434.17	9093.69
2435.56	9039.32
2436.96	9054.92
2438.35	8983.65
2439.74	9040.39
2441.13	9023.88
2442.53	9016.78
2443.92	8997.78
2445.31	9025.67
2446.7	8990.33
2448.09	9009.97
2449.48	8993.34
2450.87	8908.98
2452.26	8939.9
2453.65	8949.61
2455.04	8941.52
2456.43	8938.97
2457.82	8934.59
2459.21	8932.36
2460.6	8907.49
2461.98	8882.3
2463.37	8877.15
2464.76	8830.19
2466.15	8856.04
2467.53	8861.58
2468.92	8885.55
2470.31	8817.55
2471.7	8835.31
2473.08	8824.12
2474.47	8796.28
2475.85	8821.7
2477.24	8786.67
2478.63	8807.32
2480.01	8753.13
2481.39	8776.84
2482.78	8762.3
2484.16	8748.89
2485.55	8745.6
2486.93	8783
2488.32	8743.84
2489.7	8735.95
2491.08	8717.89
2492.46	8679.83
2493.85	8709.5
2495.23	8720.16
2496.61	8741.96
2497.99	8689.48
2499.38	8654.06
2500.76	8616.12
2502.14	8633.87
2503.52	8632.52
2504.9	8599.7
2506.28	8619.83
2507.66	8561.2
2509.04	8611.6
2510.42	8585.05
2511.8	8549.23
2513.18	8569.32
2514.56	8568.06
2515.94	8518.57
2517.31	8547.79
2518.69	8532.1
2520.07	8518.22
2521.45	8540.01
2522.82	8563.4
2524.2	8505.91
2525.58	8481.03
2526.96	8509.28
2528.33	8520.87
2529.71	8477.44
2531.09	8513.22
2532.46	8466.41
2533.84	8456.11
2535.21	8456.16
2536.59	8458.36
2537.96	8416.36
2539.34	8423.19
2540.71	8434.12
2542.08	8406.01
2543.46	8409.23
2544.83	8400.99
2546.2	8380.58
2547.58	8341.81
2548.95	8323.91
2550.32	8355.8
2551.7	8367.08
2553.07	8322.42
2554.44	8303.65
2555.81	8296.84
2557.18	8310.79
2558.55	8288.03
2559.92	8307.09
2561.29	8302.18
2562.66	8275.43
2564.03	8313.03
2565.4	8288.06
2566.77	8244.45
2568.14	8260.22
2569.51	8238.12
2570.88	8239.06
2572.25	8227.42
2573.62	8264.34
2574.99	8224.51
2576.35	8222.18
2577.72	8217.78
2579.09	8197.16
2580.46	8242.82
2581.82	8202.15
2583.19	8220.82
2584.56	8214.6
2585.92	8199.97
2587.29	8210.04
2588.65	8230.79
2590.02	8229.32
2591.38	8204.72
2592.75	8211.7
2594.11	8143.67
2595.48	8189.38
2596.84	8156.73
2598.21	8157.02
2599.57	8155.99
2600.93	8110.94
2602.3	8129.11
2603.66	8117.93
2605.02	8128.73
2606.39	8139.41
2607.75	8152.15
2609.11	8123.9
2610.47	8118.46
2611.83	8101.3
2613.19	8080.65
2614.56	8103.88
2615.92	8079.5
2617.28	8082
2618.64	8074.03
2620	8084.31
2621.36	8062.04
2622.72	8031.16
2624.08	8051.67
2625.44	8034.06
2626.8	8036.25
2628.15	8035.66
2629.51	8039.33
2630.87	8030.7
2632.23	8020.18
2633.59	8003.97
2634.94	7993.06
2636.3	8005.04
2637.66	8056.66
2639.01	7957.29
2640.37	7959.41
2641.73	7941.18
2643.08	7957.57
2644.44	7946.73
2645.79	8003.43
2647.15	7966.21
2648.5	7983.43
2649.86	7970.58
2651.21	7948.17
2652.57	7969.55
2653.92	7938.21
2655.28	7960.2
2656.63	7936.34
2657.98	7932.57
2659.33	7936.56
2660.69	7946.14
2662.04	7949.56
2663.39	7936.15
2664.75	7920.6
2666.1	7955.14
2667.45	7892.67
2668.8	7946.94
2670.15	7950.19
2671.5	7957.47
2672.85	7920.11
2674.2	7905.16
2675.55	7903.6
2676.9	7875.03
2678.25	7883.62
2679.6	7881.39
2680.95	7864.91
2682.3	7830.42
2683.65	7823.84
2685	7808.28
2686.35	7819.34
2687.7	7845.3
2689.04	7854.59
2690.39	7850.81
2691.74	7843.44
2693.09	7868.08
2694.43	7764.02
2695.78	7814.68
2697.13	7817.39
2698.47	7779.6
2699.82	7790.68
2701.16	7810.56
2702.51	7846.6
2703.85	7824.87
2705.2	7831.65
2706.54	7852.04
2707.89	7809.85
2709.23	7808.97
2710.58	7829.26
2711.92	7865.12
2713.26	7821.87
2714.61	7888.22
2715.95	7848.05
2717.29	7822.2
2718.64	7824.9
2719.98	7842.92
2721.32	7867.18
2722.66	7852.92
2724	7828.45
2725.35	7854.72
2726.69	7854.04
2728.03	7814.66
2729.37	7833.82
2730.71	7832.02
2732.05	7776.38
2733.39	7731.66
2734.73	7744.84
2736.07	7725.38
2737.41	7685.75
2738.75	7673.59
2740.09	7584.53
2741.42	7650.54
2742.76	7613.6
2744.1	7598.18
2745.44	7585.9
2746.78	7615.04
2748.11	7554.54
2749.45	7546.29
2750.79	7536.66
2752.12	7516
2753.46	7544.12
2754.8	7479.51
2756.13	7473.5
2757.47	7484.99
2758.81	7513.97
2760.14	7471.6
2761.47	7430.32
2762.81	7460.07
2764.14	7464.35
2765.48	7433.97
2766.81	7434.83
2768.15	7430.75
2769.48	7453.43
2770.81	7420.58
2772.15	7388.05
2773.48	7404.5
2774.81	7377.83
2776.14	7354.31
2777.48	7389.3
2778.81	7357.11
2780.14	7349.15
2781.47	7365.58
2782.8	7355.19
2784.13	7310.06
2785.47	7315.89
2786.8	7357.45
2788.13	7336.03
2789.46	7327.9
2790.79	7295.55
2792.12	7312.59
2793.44	7308.8
2794.77	7359.37
2796.1	7310.53
2797.43	7340.72
2798.76	7340.31
2800.09	7334.03
2801.42	7291.65
2802.74	7308.32
2804.07	7311.02
2805.4	7303.66
2806.73	7276.99
2808.05	7272.75
2809.38	7314.98
2810.71	7327.45
2812.03	7341.52
2813.36	7332.59
2814.68	7350.6
2816.01	7350.99
2817.33	7354.63
2818.66	7386.36
2819.98	7394.04
2821.31	7393.93
2822.63	7391.98
2823.96	7397.06
2825.28	7452.38
2826.6	7438.08
2827.93	7519.23
2829.25	7549.88
2830.57	7584.87
2831.9	7621.58
2833.22	7713.68
2834.54	7867.31
2835.86	7936.13
2837.19	8138.47
2838.51	8319.26
2839.83	8534.19
2841.15	8871
2842.47	9203.48
2843.79	9605.3
2845.11	10042.6
2846.43	10373
2847.75	10738.3
2849.07	11005.2
2850.39	11068.3
2851.71	11036.4
2853.03	10995.9
2854.35	10893.8
2855.66	10817.3
2856.98	10624.6
2858.3	10574.7
2859.62	10478.6
2860.94	10331
2862.25	10276
2863.57	10219.2
2864.89	10195.6
2866.2	10136.2
2867.52	10146.7
2868.84	10258.7
2870.15	10286.5
2871.47	10357.9
2872.78	10477.7
2874.1	10538
2875.41	10633.8
2876.73	10709.5
2878.04	10856.3
2879.36	10894.2
2880.67	11019
2881.98	11020.3
2883.3	11046.1
2884.61	11014.2
2885.92	10972.6
2887.24	10992.3
2888.55	11065.6
2889.86	11059.9
2891.18	11002.9
2892.49	10973.3
2893.8	10979.3
2895.11	10946.8
2896.42	10978.8
2897.73	10976.5
2899.04	10948.1
2900.35	10930.4
2901.67	10917
2902.97	10859.9
2904.29	10853.8
2905.59	10842.5
2906.9	10820.3
2908.21	10798.9
2909.52	10807.9
2910.83	10772.9
2912.14	10753.9
2913.45	10711.4
2914.76	10707.5
2916.06	10705.2
2917.37	10693.2
2918.68	10659.3
2919.99	10631.5
2921.29	10614.2
2922.6	10665.1
2923.91	10635.8
2925.21	10659.2
2926.52	10698.9
2927.82	10652
2929.13	10682.2
2930.44	10671.9
2931.74	10654
2933.05	10609.5
2934.35	10569
2935.65	10552.4
2936.96	10437.4
2938.26	10333.3
2939.57	10207.2
2940.87	10045
2942.17	9823.58
2943.48	9657.78
2944.78	9464
2946.08	9303.81
2947.38	9179.76
2948.69	9085.83
2949.99	8961.62
2951.29	8900.21
2952.59	8801.57
2953.89	8800.46
2955.19	8741.48
2956.49	8740.91
2957.8	8686.84
2959.1	8642.5
2960.4	8643.59
2961.7	8524.1
2962.99	8470.47
2964.29	8416.7
2965.59	8352.56
2966.89	8276.7
2968.19	8248.64
2969.49	8169.34
2970.79	8076.39
2972.09	8015.05
2973.38	7913.5
2974.68	7855.68
2975.98	7807.27
2977.28	7789.57
2978.57	7730.87
2979.87	7697.87
2981.17	7624.31
2982.46	7631.34
2983.76	7568.99
2985.05	7501.29
2986.35	7492.11
2987.65	7431.69
2988.94	7402.58
2990.24	7368.4
2991.53	7343.05
2992.82	7333.45
2994.12	7318.42
2995.41	7316.02
2996.71	7311.75
2998	7264.58
2999.29	7263.04
3000.59	7311.74
3001.88	7265.44
3003.17	7252.22
3004.47	7225.04
3005.76	7251.35
3007.05	7233.69
3008.34	7180.67
3009.63	7184.77
3010.92	7122.58
3012.21	7106.01
3013.5	7123.39
3014.8	7059.3
3016.09	7020.8
3017.38	7001.3
3018.67	7021.18
3019.96	6961.05
3021.25	6941.73
3022.54	6930.71
3023.82	6965.45
3025.11	6925.72
3026.4	6900.87
3027.69	6908.05
3028.98	6885.26
3030.27	6846.75
3031.55	6827.64
3032.84	6840.81
3034.13	6821.6
3035.42	6862.3
3036.7	6883.51
3037.99	6830.74
3039.28	6836.32
3040.56	6833.08
3041.85	6838.2
3043.13	6830.26
3044.42	6846.64
3045.7	6847.28
3046.99	6860.29
3048.27	6865.13
3049.56	6849.01
3050.84	6864.93
3052.13	6904.14
3053.41	6881.12
3054.69	6884
3055.98	6901.52
3057.26	6889.66
3058.54	6920.66
3059.83	6924.53
3061.11	6922.56
3062.39	6920.27
3063.67	6924.54
3064.95	6939.15
3066.24	6949.82
3067.52	6962.04
3068.8	6918.42
3070.08	6965.69
3071.36	6969.12
3072.64	6922.37
3073.92	6939.42
3075.2	6956.34
3076.48	6959.83
3077.76	6937.71
3079.04	6958.61
3080.32	6967.5
3081.6	6920.42
3082.88	6917.15
3084.16	6957.77
3085.44	6951.06
3086.71	6960.99
3087.99	7002.06
3089.27	7009.47
3090.55	7008.48
3091.82	7009.16
3093.1	7007.19
3094.38	7024.67
3095.65	7009.83
3096.93	6977.78
3098.21	7044.25
3099.48	7053.25
3100.76	7045.92
3102.03	7059.67
3103.31	7104
3104.58	7092.78
3105.86	7104.33
3107.13	7147.14
3108.41	7131.91
3109.68	7143.61
3110.96	7164.53
3112.23	7194.68
3113.5	7181.86
3114.78	7202.31
3116.05	7239.76
3117.32	7238.1
3118.59	7269.7
3119.87	7281
3121.14	7273.34
3122.41	7299.1
3123.68	7293.84
3124.95	7320.91
3126.23	7289.08
3127.5	7305.93
3128.77	7364.2
3130.04	7380.89
3131.31	7413.17
3132.58	7422.53
3133.85	7437.79
3135.12	7454.07
3136.39	7457.74
3137.66	7490.77
3138.93	7496.02
3140.2	7502.17
3141.46	7511.01
3142.73	7537.71
3144	7564.8
3145.27	7534.44
3146.54	7597.4
3147.8	7616.68
3149.07	7631.34
3150.34	7637.79
3151.6	7622.56
3152.87	7678.42
3154.14	7696.62
3155.4	7726.46
3156.67	7710.71
3157.94	7762.94
3159.2	7784.11
3160.47	7754.85
3161.73	7794.32
3163	7776.38
3164.26	7843.12
3165.53	7814.49
3166.79	7826.47
3168.05	7771.93
3169.32	7872.82
3170.58	7866.44
3171.84	7836.8
3173.11	7857.17
3174.37	7862.84
3175.63	7872.3
3176.9	7882.99
3178.16	7857.88
3179.42	7880.98
3180.68	7861.81
3181.94	7867.66
3183.21	7885.5
3184.47	7910.95
3185.73	7907.86
3186.99	7885.87
3188.25	7910.34
3189.51	7930.22
3190.77	7922.83
3192.03	7922.33
3193.29	7921.22
3194.55	7899.4
3195.81	7913.74
3197.07	7912.89
3198.33	7921.58
3199.58	7909.37
3200.84	7896.11
3202.1	7902.58
3203.36	7910.18
3204.62	7908.02
3205.87	7956.28
3207.13	7925.95
3208.39	7920.27
3209.65	7917.01
3210.9	7923.98
3212.16	7934.61
3213.41	7909.14
3214.67	7909.79
3215.93	7885.71
3217.18	7866.01
3218.44	7902.97
3219.69	7887.43
3220.95	7879.46
3222.2	7873.87
3223.46	7867.89
3224.71	7866.14
3225.97	7902.8
3227.22	7875.68
3228.47	7842.63
3229.73	7875.93
3230.98	7872.78
3232.23	7848.9
3233.48	7853.24
3234.74	7854.76
3235.99	7832.39
3237.24	7837.3
3238.49	7828.37
3239.75	7821.38
3241	7801.6
3242.25	7835.98
3243.5	7809.13
3244.75	7788.71
3246	7793.6
3247.25	7802.11
3248.5	7789.7
3249.75	7776.39
3251	7757.26
3252.25	7758.49
3253.5	7750.12
3254.75	7731.53
3256	7715.41
3257.25	7713.7
3258.49	7682.55
3259.74	7678.41
3260.99	7680.11
3262.24	7658.13
3263.49	7670.58
3264.73	7666.97
3265.98	7631.17
3267.23	7658.05
3268.47	7673.96
3269.72	7664.69
3270.97	7633.1
3272.21	7644.13
3273.46	7641.98
3274.7	7614.53
3275.95	7620.88
3277.2	7589.79
3278.44	7596.26
3279.69	7606.08
3280.93	7562.73
3282.17	7556.72
3283.42	7555.35
3284.66	7539.61
3285.91	7546.62
3287.15	7584.61
3288.39	7548.54
3289.64	7523.66
3290.88	7516.43
3292.12	7536.13
3292.31	7534.86
3293.56	7533.29
3294.8	7511.66
3296.05	7502.35
3297.3	7513.78
3298.55	7480.81
3299.79	7479.16
3301.04	7515.64
3302.29	7504.13
3303.54	7495.98
3304.78	7497.86
3306.03	7469.86
3307.27	7446.37
3308.52	7470.99
3309.76	7438.75
3311.01	7454.66
3312.26	7445.64
3313.5	7439.03
3314.75	7447.34
3315.99	7440.62
3317.23	7446.89
3318.48	7412.99
3319.72	7430.42
3320.97	7419.67
3322.21	7443.55
3323.45	7447.8
3324.7	7420.15
3325.94	7436.14
3327.18	7427.08
3328.42	7406.86
3329.67	7411.41
3330.91	7397.99
3332.15	7410.37
3333.39	7427.57
3334.63	7405.15
3335.87	7414.41
3337.12	7414.44
3338.36	7360.59
3339.6	7366.38
3340.84	7388.32
3342.08	7364.52
3343.32	7352.53
3344.56	7342.14
3345.8	7408.27
3347.04	7366.75
3348.27	7341.73
3349.51	7335.83
3350.75	7343.61
3351.99	7337.1
3353.23	7331.47
3354.47	7342.98
3355.7	7360.19
3356.94	7337.64
3358.18	7353.94
3359.42	7352.03
3360.65	7328.18
3361.89	7319.88
3363.13	7297.84
3364.36	7330.95
3365.6	7361.2
3366.83	7320.92
3368.07	7323.57
3369.31	7302.75
3370.54	7312.57
3371.78	7349.3
3373.01	7331.14
3374.25	7312.1
3375.48	7357.02
3376.71	7350.45
3377.95	7320.73
3379.18	7346.76
3380.42	7323.76
3381.65	7315.08
3382.88	7288.51
3384.12	7299.87
3385.35	7317.31
3386.58	7274.31
3387.81	7269.8
3389.04	7282.26
3390.28	7268.11
3391.51	7260.61
3392.74	7272.49
3393.97	7286.22
3395.2	7296.07
3396.43	7299.91
3397.67	7260.92
3398.9	7268.25
3400.13	7288.83
3401.36	7249.7
3402.58	7289.87
3403.82	7205.05
3405.05	7227.99
3406.27	7249.77
3407.5	7274.5
3408.73	7220.69
3409.96	7226.38
3411.19	7206.56
3412.42	7237.4
3413.64	7213.83
3414.87	7185.66
3416.1	7194.1
3417.33	7228.67
3418.55	7214.95
3419.78	7209.76
3421.01	7205.71
3422.23	7128.62
3423.46	7146.68
3424.69	7138.45
3425.91	7143.31
3427.14	7126.47
3428.36	7097.42
3429.59	7099.19
3430.81	7063.89
3432.04	7104.94
3433.26	7083.71
3434.49	7060.75
3435.71	7090.57
3436.94	7064.59
3438.16	7044.34
3439.39	7053.52
3440.61	7050.68
3441.83	6965.1
3443.05	7006.44
3444.28	6960.55
3445.5	6999.96
3446.72	6951.86
3447.95	6979
3449.17	6963.4
3450.39	6930.7
3451.61	6916.41
3452.83	6920.88
3454.05	6889.92
3455.27	6895.5
3456.5	6896.17
3457.71	6866.56
3458.94	6822.75
3460.16	6831.02
3461.38	6816.79
3462.59	6812.8
3463.81	6820.31
3465.03	6798.55
3466.25	6769
3467.47	6794.51
3468.69	6750.6
3469.91	6729.3
3471.13	6729.04
3472.35	6725.29
3473.56	6672.73
3474.78	6661.65
3476	6632.05
3477.22	6629.85
3478.43	6612.92
3479.65	6575.16
3480.87	6553.71
3482.08	6552.33
3483.3	6548.67
3484.52	6507.7
3485.73	6488.85
3486.95	6494.6
3488.16	6483.32
3489.38	6446.83
3490.59	6441.59
3491.81	6450.65
3493.02	6420.72
3494.24	6348.73
3495.45	6374.66
3496.67	6355.55
3497.88	6308.68
3499.09	6295.78
