#Acq. time (s)=	10
#Accumulations=	10
#Range (cm-¹)=	400...3500
#Windows=	3
#Auto scanning=	Off
#Autofocus=	Off
#AutoExposure=	Off
#Spike filter=	Multiple accum.
#Delay time (s)=	0
#Binning=	1
#Readout mode=	Signal
#DeNoise=	Off
#ICS correction=	On
#Dark correction=	Off
#Inst. Process=	Off
#Detector Gain=	Best Dynamic Range
#Detector ADC=	45 kHz       
#Detector temperature (°C)=	-60.1
#Instrument=	LabRAM HR Evol
#Detector=	Syncerity OE
#Objective=	x50_VIS_LWD
#Grating=	600 (500nm)
#ND Filter=	50%
#Laser=	532nm_Edge
#Hole=	199.981
#Range=	Visible
#E-Cal_Neon=	0
#StageXY=	75x50mm Scan+
#StageZ=	Z motor
#X (µm)=	0
#Y (µm)=	0
#Z (µm)=	681
#Spectral res.(cm-¹)=	12.8
#Full time(mm:ss)=	5:20
#AC=	Calibrated 2025-06-30 10:26
#Project=	
#Sample=	
#Site=	
#Title=	D_104
#Remark=	
#Date=	30.06.2025 11:14 (India Standard Time)
#Acquired=	30.06.2025 11:14:32 (India Standard Time)
#AxisType[0]=Intens
#AxisUnit[0]=Cnt
#AxisType[1]=Spectr
#AxisUnit[1]=1/cm
400.17	27558.9
401.945	27411.6
403.717	27449
405.491	27437.8
407.263	27394.3
409.036	27406.4
410.807	27468.3
412.58	27426.6
414.35	27373.3
416.122	27446.8
417.892	27545.7
419.663	27392.3
421.432	27380
423.203	27371.4
424.971	27377.7
426.741	27426.6
428.509	27456
430.276	27451.3
432.045	27422.8
433.812	27425.3
435.58	27450.3
437.346	27422.1
439.111	27336.2
440.879	27331.9
442.643	27383.1
444.408	27319.1
446.174	27304.1
447.938	27288.2
449.701	27251.5
451.467	27203
453.229	27232.1
454.992	27213.8
456.756	27259.1
458.518	27214
460.279	27116.7
462.043	27092.9
463.803	27134.9
465.564	27065.7
467.326	27062.7
469.086	27045.4
470.845	27014.9
472.604	26962.8
474.365	27026.7
476.123	27025.4
477.882	27038.2
479.639	27004.7
481.399	26912.7
483.156	26999.4
484.913	26966.4
486.669	26958.8
488.425	26985.8
490.183	26976.1
491.938	26900
493.693	26888.8
495.448	26926.7
497.202	26979
498.956	27036.8
500.712	27008
502.465	27028.5
504.218	26980.1
505.971	27055.6
507.723	26983
509.475	27065.4
511.227	27008
512.981	27037.9
514.732	27146.1
516.482	27042.3
518.233	26987.3
519.983	26982.3
521.732	27000.7
523.482	27001.4
525.231	26890.1
526.979	26893.2
528.728	26894.5
530.476	26824.6
532.223	26802.4
533.971	26684.2
535.718	26719
537.464	26711.4
539.211	26733.3
540.956	26624
542.702	26690.2
544.447	26595.4
546.192	26613.2
547.937	26563.3
549.681	26517.6
551.425	26561.9
553.169	26402.4
554.912	26560.6
556.655	26524.5
558.398	26431.6
560.14	26455.9
561.882	26481.4
563.624	26539.5
565.365	26480.6
567.106	26489.6
568.847	26496.6
570.585	26449.7
572.325	26511.6
574.065	26525.8
575.804	26530.9
577.543	26582.1
579.282	26576.9
581.02	26509.7
582.756	26646
584.494	26580.4
586.231	26620.2
587.968	26570.9
589.705	26574.3
591.441	26572.9
593.175	26624.7
594.911	26727.6
596.646	26717
598.381	26741.6
600.116	26733
601.848	26668.8
603.582	26755
605.316	26716.7
607.049	26782.8
608.78	26683.9
610.513	26615.5
612.245	26539.8
613.977	26539.8
615.707	26506.3
617.438	26510
619.17	26402.5
620.898	26397
622.629	26348.1
624.359	26339.2
626.086	26248.9
627.816	26202.6
629.545	26139.2
631.272	26152.9
633	26167.4
634.728	26139.7
636.454	26177.7
638.181	26207.7
639.908	26204.8
641.633	26263
643.36	26145
645.084	26064.8
646.81	26048.9
648.535	26084.1
650.258	26067
651.983	26007.8
653.705	25982.6
655.43	26009.9
657.153	25964.3
658.875	25980
660.598	25965.7
662.319	25912
664.041	25863.6
665.762	25907.2
667.483	25878.5
669.203	25920.8
670.924	25893.7
672.643	25893.1
674.364	25858.7
676.082	25888
677.802	25813.7
679.519	25793.7
681.238	25773
682.955	25946.3
684.674	25868.3
686.39	25882.1
688.106	25860.6
689.824	25878
691.539	25856.5
693.256	25894.3
694.971	25943.7
696.685	26016.9
698.401	25907.4
700.115	25947.7
701.83	25964.6
703.543	25875.6
705.256	25918
706.97	25910.5
708.682	25873.2
710.394	25922.1
712.107	25829.6
713.818	25853.7
715.529	25910.3
717.241	25938.8
718.952	25922.2
720.661	26020.7
722.373	26006.5
724.082	25929.3
725.791	26016.1
727.501	25973.1
729.209	25980.6
730.917	25805
732.625	25907.3
734.334	25902.9
736.041	25898.5
737.747	25868.6
739.453	25786.5
741.161	25802.4
742.867	25795.6
744.572	25647.2
746.277	25748.6
747.982	25729.5
749.688	25885.5
751.392	25774
753.096	25905.3
754.799	25881
756.502	25923.1
758.205	25944.2
759.909	25981.8
761.611	25899.6
763.313	25872.3
765.014	25957.7
766.715	25941.9
768.416	25917.3
770.116	25952.3
771.816	25866
773.516	25902.2
775.218	25903.7
776.917	25986.5
778.616	26011.8
780.314	25986.9
782.012	25952.4
783.71	25912.6
785.408	25997
787.105	25926
788.802	25908.1
790.498	25919.4
792.195	25937.6
793.891	25861.2
795.586	25918.6
797.281	25989.7
798.977	25960.8
800.671	25974.6
802.365	26010.2
804.06	26069.5
805.753	26053.3
807.447	26029.2
809.14	26154.4
810.832	26064.7
812.525	26027.7
814.217	26141.7
815.907	26117.1
817.598	26282.1
819.289	26205.5
820.98	26353.1
822.671	26413.5
824.361	26544.9
826.051	26588.7
827.74	26615.1
829.43	26612.9
831.117	26623.4
832.805	26674.8
834.494	26697.2
836.182	26714
837.869	26834.8
839.557	26815.1
841.242	26938.8
842.928	26962.9
844.615	27038.1
846.301	27071.9
847.987	27106.7
849.67	27165.9
851.355	27049.8
853.04	27043.5
854.724	27142.5
856.407	27149
858.091	27190
859.774	27289.9
861.457	27197.7
863.138	27383
864.821	27334.5
866.503	27398.4
868.183	27391.1
869.865	27430.5
871.546	27371.7
873.225	27430.3
874.906	27442.5
876.586	27431.9
878.264	27365.1
879.944	27250.7
881.624	27173.9
883.301	27137.8
884.98	27184.6
886.658	27150.3
888.334	27287.7
890.012	27273.5
891.688	27232.1
893.365	27090.8
895.042	26939.5
896.717	26833.8
898.393	26752
900.067	26576.3
901.743	26508.2
903.416	26520.4
905.091	26437.5
906.766	26353.7
908.438	26282.1
910.112	26218.6
911.784	26219
913.458	26274.5
915.129	26174.5
916.802	26237.9
918.472	26149.9
920.145	26311.2
921.815	26156.6
923.484	26208.1
925.156	26127.4
926.825	26015.4
928.495	25931
930.164	25902.3
931.834	25823.5
933.501	25764.9
935.171	25811.9
936.838	25787.4
938.505	25883.2
940.173	25924.3
941.84	25817.1
943.505	25769.3
945.173	25845.3
946.838	25803.4
948.505	25884.9
950.17	25836.6
951.834	25832
953.5	25834.6
955.164	25908.6
956.827	25800.6
958.492	25867.8
960.155	25948
961.818	25983.4
963.48	25938.5
965.144	25956.3
966.805	25806.1
968.467	25834.1
970.128	25781.8
971.79	25715.9
973.45	25744
975.11	25706.5
976.77	25510.8
978.432	25671.2
980.091	25616.1
981.749	25590.2
983.408	25597
985.068	25532.9
986.726	25612.3
988.383	25706.1
990.041	25817
991.698	25850.4
993.354	25937.4
995.012	26050.8
996.668	26264.8
998.324	26598.3
999.979	26807.6
1001.63	27195.5
1003.29	27362.1
1004.94	27284.9
1006.6	27107.1
1008.25	26814.6
1009.91	26518.7
1011.56	26509.8
1013.21	26344.9
1014.87	26367.2
1016.52	26255.6
1018.17	26226.3
1019.82	26125.1
1021.47	26096.1
1023.12	25999.7
1024.78	26062.3
1026.43	25973.1
1028.08	25894.3
1029.73	25920.4
1031.38	25939.1
1033.02	25842.3
1034.67	25801.7
1036.32	25851.3
1037.97	25783
1039.62	25743.5
1041.27	25738.2
1042.91	25737.7
1044.56	25794.5
1046.21	25783.6
1047.85	25768
1049.5	25827.3
1051.14	25950.2
1052.79	25992.4
1054.43	26110.9
1056.08	26286.1
1057.72	26553
1059.37	26631.5
1061.01	26991
1062.65	27167.2
1064.3	27084.9
1065.94	26981.1
1067.58	26826.7
1069.23	26605.5
1070.87	26582.1
1072.51	26709.9
1074.15	26806.2
1075.79	26827.2
1077.43	26967.2
1079.07	26910.5
1080.71	26993.3
1082.35	26982.5
1083.99	26862.8
1085.63	26835.3
1087.27	26675.3
1088.91	26587.3
1090.55	26452.7
1092.18	26327.5
1093.82	26198.9
1095.46	26039.6
1097.1	25902.3
1098.73	25806.5
1100.37	25651.5
1102	25566.7
1103.64	25437.6
1105.27	25300.3
1106.91	25315
1108.54	25376.1
1110.18	25242.9
1111.81	25353.9
1113.44	25461.4
1115.08	25629.4
1116.71	25671.7
1118.34	25752.3
1119.98	25856.5
1121.61	26015.4
1123.24	26049.8
1124.87	26133.8
1126.5	26231.2
1128.13	26068.5
1129.76	25845.1
1131.39	25569.8
1133.02	25274.3
1134.65	25087.4
1136.28	24975
1137.91	24928.4
1139.54	25054.8
1141.17	25083.1
1142.8	25305.3
1144.42	25531.6
1146.05	25708.9
1147.68	26116.1
1149.3	26549.5
1150.93	27219.8
1152.56	27959.6
1154.18	28519.3
1155.81	28848.7
1157.43	28814.7
1159.06	28356.6
1160.68	27520
1162.31	26664.3
1163.93	25978.7
1165.55	25404.4
1167.18	25010.3
1168.8	24771.4
1170.42	24814.5
1172.04	24694.2
1173.67	24628.6
1175.29	24508.1
1176.91	24479.6
1178.53	24392.6
1180.15	24349.2
1181.77	24355.3
1183.39	24385.4
1185.01	24509.4
1186.63	24472.5
1188.25	24493.9
1189.87	24500
1191.49	24461
1193.11	24448.6
1194.72	24419.8
1196.34	24312.3
1197.96	24296.6
1199.58	24149.2
1201.19	24125.1
1202.81	24008.3
1204.43	23936.1
1206.04	24014.3
1207.66	23901.3
1209.27	23979
1210.88	23998.3
1212.5	23912.4
1214.11	23838.3
1215.73	23695.5
1217.34	23722.7
1218.95	23616.2
1220.57	23592.3
1222.18	23531.9
1223.79	23527.7
1225.4	23540
1227.02	23605.4
1228.63	23614.1
1230.24	23585.2
1231.85	23644.9
1233.46	23651.8
1235.07	23687.9
1236.68	23698.9
1238.29	23748.8
1239.9	23779.5
1241.51	23926.2
1243.12	24023.3
1244.72	24094.1
1246.33	24136.2
1247.94	24246.7
1249.55	24258.3
1251.15	24354
1252.76	24354.1
1254.37	24487.2
1255.97	24449.9
1257.58	24527.2
1259.19	24531.7
1260.79	24586.2
1262.39	24669.6
1264	24715.2
1265.6	24788.9
1267.21	24835.6
1268.81	24698.8
1270.41	24596.2
1272.02	24624.2
1273.62	24527
1275.22	24485.5
1276.82	24471.4
1278.43	24439.1
1280.03	24431.2
1281.63	24456.4
1283.23	24487
1284.83	24524.4
1286.43	24596.5
1288.03	24694.8
1289.63	24938.7
1291.23	25280.4
1292.83	25652
1294.43	26102.5
1296.03	26588.2
1297.62	26833.3
1299.22	26942
1300.82	26917.6
1302.42	26911.7
1304.01	26710.5
1305.61	26456
1307.21	26187.9
1308.8	25816.7
1310.4	25646.3
1311.99	25346.1
1313.59	25044.1
1315.18	24735.5
1316.78	24512.6
1318.37	24335.6
1319.96	24201.1
1321.56	23938.8
1323.15	23948.8
1324.74	23706.7
1326.34	23476.8
1327.93	23462
1329.52	23332.7
1331.11	23230.6
1332.7	23177.8
1334.3	23065.6
1335.89	23023.2
1337.48	23086.4
1339.07	23048.1
1340.66	23029.2
1342.25	23007.2
1343.84	23050.7
1345.42	23053.1
1347.01	22887.5
1348.6	22832.8
1350.19	22797.4
1351.78	22738
1353.37	22666.9
1354.95	22735.7
1356.54	22539.1
1358.13	22616.4
1359.71	22463.7
1361.3	22436.8
1362.88	22486.4
1364.47	22523.9
1366.05	22535
1367.64	22444
1369.22	22480.8
1370.81	22358.6
1372.39	22288.7
1373.97	22190.8
1375.56	22047.9
1377.14	22071.8
1378.72	21949.4
1380.31	21916.4
1381.89	21826.1
1383.47	21755.1
1385.05	21722.8
1386.63	21739.3
1388.21	21733.8
1389.79	21840.4
1391.37	21745.2
1392.95	21775.9
1394.53	21738.1
1396.11	21707.1
1397.69	21743.1
1399.27	21681.7
1400.85	21738
1402.42	21816.7
1404	21750.9
1405.58	21715.7
1407.16	21797.4
1408.73	21897.6
1410.31	21982.8
1411.89	22174.6
1413.46	22196.8
1415.04	22388.6
1416.61	22511.3
1418.19	22718
1419.76	22808.1
1421.34	22956.5
1422.91	23064
1424.49	23281.9
1426.06	23490.1
1427.63	23892.6
1429.21	24406.5
1430.78	25200.6
1432.35	26081
1433.92	26944.7
1435.49	27686.6
1437.07	28270.5
1438.64	28566.3
1440.21	28728.7
1441.78	28527.3
1443.35	28229.8
1444.92	27939.3
1446.49	27671.8
1448.06	27384.8
1449.63	27217.5
1451.2	27002.4
1452.76	26850.7
1454.33	26640.9
1455.9	26444.8
1457.47	26274.4
1459.03	26037
1460.6	25697.5
1462.17	25413.9
1463.74	25028.3
1465.3	24640.7
1466.87	24241
1468.43	23864.6
1470	23455
1471.56	23080
1473.13	22737.7
1474.69	22352.7
1476.26	22109.9
1477.82	21841.9
1479.38	21680.2
1480.94	21579.7
1482.51	21479.6
1484.07	21397.6
1485.63	21274.9
1487.2	21194.9
1488.76	21200.9
1490.32	21117.7
1491.88	21190.2
1493.44	21198.5
1495	21233.8
1496.56	21210.7
1498.12	21266.8
1499.68	21263.4
1501.24	21349.6
1502.8	21408.1
1504.36	21637.2
1505.91	21860.2
1507.47	22004.4
1509.03	22339.3
1510.59	22746.8
1512.14	23150.7
1513.7	23538.6
1515.26	23943.2
1516.81	24359.3
1518.37	24611.6
1519.93	24817.7
1521.48	24966.4
1523.04	24935.3
1524.59	24744.1
1526.15	24364.9
1527.7	23899.3
1529.25	23332.4
1530.81	22719.9
1532.36	22070.7
1533.91	21684.3
1535.47	21166.5
1537.02	20897.6
1538.57	20623.1
1540.12	20543.9
1541.67	20433.5
1543.23	20210.6
1544.78	20146
1546.33	20123.6
1547.88	19936.5
1549.43	20008.8
1550.98	19874.3
1552.53	19860.5
1554.08	19845.9
1555.63	19861.9
1557.18	19776.9
1558.72	19704.9
1560.27	19734.8
1561.82	19693.8
1563.37	19703.2
1564.91	19672.9
1566.46	19644
1568.01	19635.1
1569.55	19695.5
1571.1	19639.7
1572.64	19643.8
1574.19	19567.1
1575.74	19616.9
1577.28	19600.1
1578.83	19664.9
1580.37	19583.8
1581.91	19627
1583.46	19640.5
1585	19562.8
1586.54	19648.4
1588.09	19603.6
1589.63	19575.4
1591.17	19571.9
1592.71	19570
1594.25	19542.7
1595.79	19551.8
1597.34	19565.9
1598.88	19535.2
1600.42	19648.2
1601.96	19638.7
1603.5	19585.5
1605.04	19546.6
1606.58	19527.7
1608.12	19595.3
1609.65	19522.9
1611.19	19448.6
1612.73	19509.5
1614.27	19410.3
1615.8	19402.8
1617.34	19471.9
1618.88	19388.4
1620.42	19366.8
1621.95	19307.1
1623.49	19320.8
1625.03	19336.4
1626.56	19372.5
1628.1	19423.7
1629.63	19395.1
1631.17	19450.4
1632.7	19513.5
1634.23	19536.3
1635.77	19627.6
1637.3	19640.9
1638.83	19724.4
1640.37	19838.1
1641.9	19912.3
1643.43	20026.1
1644.96	20287
1646.5	20547.7
1648.03	20964.4
1649.56	21482.8
1651.09	21827.6
1652.62	22108.2
1654.15	22224.8
1655.68	22076.9
1657.21	21686.6
1658.74	21416.9
1660.27	20918.7
1661.8	20543.1
1663.32	20259.9
1664.85	20156.8
1666.38	19964.4
1667.91	19882.7
1669.44	19786.1
1670.96	19649.1
1672.49	19535.9
1674.02	19320
1675.54	19214.9
1677.07	18980.9
1678.59	18983
1680.12	18847.6
1681.65	18730.8
1683.17	18715.8
1684.69	18594.2
1686.22	18551.5
1687.74	18441.8
1689.27	18479.5
1690.79	18321.2
1692.31	18318.2
1693.84	18240.9
1695.36	18210.7
1696.88	18149.3
1698.4	18070.5
1699.92	18009.9
1701.45	18002.8
1702.97	18063.8
1704.49	17935.4
1706.01	17947
1707.53	17891.6
1709.05	17910.1
1710.57	17826
1712.09	17810.3
1713.61	17786.8
1715.13	17828.5
1716.65	17776.3
1718.16	17767.2
1719.68	17743
1721.2	17785
1722.72	17817.1
1724.23	17797.7
1725.75	17884.5
1727.27	17905.6
1728.78	17995.5
1730.3	18037.2
1731.82	18102.4
1733.33	18132.2
1734.84	18335.7
1736.36	18296.6
1737.87	18580.3
1739.39	18696.2
1740.9	18746.4
1742.42	18833.8
1743.93	18743.1
1745.44	18746.8
1746.96	18739.9
1748.47	18653
1749.98	18634.9
1751.49	18505.3
1753	18396.2
1754.51	18168.1
1756.03	17977
1757.54	17879.6
1759.05	17689.9
1760.56	17557.1
1762.07	17389.9
1763.58	17376.1
1765.09	17308.6
1766.6	17220.9
1768.11	17152.3
1769.61	17184.8
1771.12	17138.4
1772.63	17020.1
1774.14	17090.9
1775.65	17083.8
1777.15	16976.1
1778.66	16990.2
1780.17	16957.1
1781.67	17013.8
1783.18	16899.3
1784.68	16990.9
1786.19	16961.6
1787.7	16943.6
1789.2	16967.3
1790.71	16955
1792.21	16895.9
1793.71	16911.5
1795.22	16945.3
1796.72	16805.4
1798.22	16791.6
1799.73	16751.2
1801.23	16796
1802.73	16683.4
1804.23	16758
1805.74	16738.5
1807.24	16699.4
1808.74	16671.7
1810.24	16696.4
1811.74	16686.3
1813.24	16667.2
1814.74	16670.3
1816.24	16578
1817.74	16694.3
1819.24	16565.7
1820.74	16561.3
1822.24	16548.5
1823.74	16583.9
1825.23	16547.2
1826.73	16515.9
1828.23	16508.4
1829.73	16555.4
1831.22	16506.1
1832.72	16524.2
1834.22	16471.7
1835.71	16380.7
1837.21	16480
1838.71	16394.9
1840.2	16412.3
1841.7	16391.3
1843.19	16349.5
1844.68	16379.6
1846.18	16363.1
1847.67	16311.5
1849.17	16381.6
1850.66	16294.8
1852.15	16219.4
1853.65	16217.3
1855.14	16293.1
1856.63	16281.9
1858.12	16222.4
1859.62	16240.4
1861.11	16202.4
1862.6	16183.4
1864.09	16256.3
1865.58	16224
1867.07	16187.2
1868.56	16173.9
1870.05	16101.2
1871.54	16117.9
1873.03	16138.2
1874.52	16091.3
1876.01	16098.3
1877.49	16069.1
1878.98	16077
1880.47	16082.9
1881.96	16075.6
1883.45	15995.5
1884.93	15883.9
1886.42	16015.6
1887.91	15952.6
1889.39	15963.2
1890.88	15873.1
1892.36	15913.5
1893.85	15877.4
1895.34	15828.3
1896.82	15815.7
1898.3	15815.6
1899.79	15798.4
1901.27	15740.1
1902.76	15716.9
1904.24	15664.6
1905.72	15571.4
1907.2	15608.9
1908.69	15511.8
1910.17	15466
1911.65	15446.8
1913.13	15441.5
1914.62	15327.7
1916.1	15353.8
1917.58	15311.5
1919.06	15298.9
1920.54	15205.9
1922.02	15190.2
1923.5	15168.2
1924.98	15094.8
1926.46	15117.8
1927.94	15122.5
1929.42	15030.4
1930.89	15010.4
1932.37	14969.2
1933.85	14940.2
1935.33	14906.8
1936.81	14872.6
1938.28	14794.5
1939.76	14763.4
1941.24	14744.7
1942.71	14731.5
1944.19	14690.8
1945.66	14662.4
1947.14	14558
1948.61	14560.9
1950.09	14537.4
1951.57	14486.9
1953.04	14409
1954.51	14375.9
1955.99	14304.7
1957.46	14341
1958.93	14259.3
1960.41	14238.1
1961.88	14168.5
1963.35	14188.1
1964.82	14146.6
1966.3	14110.9
1967.77	14096.4
1969.24	14061.4
1970.71	14019.4
1972.18	14021
1973.65	13956.2
1975.12	13918.9
1976.59	13929.7
1978.06	13867.9
1979.53	13857.4
1981	13803.9
1982.47	13760.5
1983.94	13740.8
1985.41	13709.4
1986.87	13664.4
1988.34	13671.1
1989.81	13616.4
1991.28	13587.3
1992.74	13532
1994.21	13498.7
1995.68	13465
1997.14	13420.6
1998.61	13413.8
2000.07	13355.9
2001.54	13352.4
2003.01	13281.5
2004.47	13271.3
2005.94	13259
2007.4	13248
2008.86	13213.2
2010.33	13174.9
2011.79	13167.3
2013.25	13136.4
2014.72	13106.9
2016.18	13068.5
2017.64	13045.4
2019.1	13028
2020.57	13006.8
2022.03	12969.1
2023.49	12929.8
2024.95	12875.2
2026.41	12875.8
2027.87	12842.6
2029.33	12819.4
2030.79	12811.7
2032.25	12785.1
2033.71	12761.5
2035.17	12745.4
2036.63	12713.4
2038.09	12683
2039.54	12683.3
2041	12681.9
2042.46	12656.5
2043.92	12603.5
2045.38	12583.6
2045.86	12579.5
2047.32	12554.9
2048.79	12600.7
2050.25	12565.5
2051.71	12534.1
2053.17	12528.7
2054.64	12528.3
2056.1	12518.2
2057.56	12536.3
2059.02	12467.3
2060.48	12465
2061.94	12438.3
2063.4	12499.3
2064.86	12472.9
2066.32	12449.4
2067.78	12429.2
2069.24	12446.4
2070.7	12401.2
2072.16	12389.1
2073.62	12380.3
2075.08	12382.9
2076.54	12367.8
2077.99	12377.5
2079.45	12397
2080.91	12328.2
2082.37	12358.2
2083.82	12365.4
2085.28	12349.1
2086.74	12302.5
2088.19	12284
2089.65	12295.5
2091.1	12276.7
2092.56	12230.5
2094.01	12224.8
2095.47	12236.2
2096.92	12224.4
2098.38	12216.9
2099.83	12177.3
2101.29	12208.1
2102.74	12157
2104.19	12144
2105.64	12178.8
2107.1	12189.6
2108.55	12133.1
2110	12143.9
2111.45	12126.9
2112.91	12051.4
2114.36	12073.8
2115.81	12056.9
2117.26	12022.7
2118.71	12043.6
2120.16	12011.1
2121.61	12054.3
2123.06	11996.6
2124.51	12043.3
2125.96	12000.7
2127.4	11990.3
2128.85	11971.6
2130.3	11981.3
2131.75	11990.9
2133.2	11977.4
2134.65	11971.3
2136.09	11925.8
2137.54	11946.1
2138.99	11912.7
2140.43	11911.9
2141.88	11908.2
2143.32	11924.9
2144.77	11895.2
2146.22	11866.3
2147.66	11871.3
2149.11	11839.8
2150.55	11859.3
2152	11848.6
2153.44	11830.3
2154.88	11847.4
2156.33	11840.3
2157.77	11834.3
2159.21	11813.5
2160.66	11789.7
2162.1	11812
2163.54	11789.2
2164.98	11844.1
2166.43	11778.1
2167.87	11727.9
2169.31	11814.9
2170.75	11788.8
2172.19	11760
2173.63	11744.9
2175.07	11746
2176.51	11719.2
2177.95	11706.7
2179.39	11735.2
2180.83	11727.6
2182.27	11737.4
2183.71	11682.7
2185.14	11672.2
2186.58	11669.5
2188.02	11617.4
2189.46	11641.4
2190.9	11615.3
2192.33	11669.9
2193.77	11601.6
2195.21	11617.1
2196.64	11566.1
2198.08	11559.1
2199.51	11571.6
2200.95	11581
2202.39	11527.6
2203.82	11513.8
2205.25	11528.1
2206.69	11527.9
2208.12	11483.1
2209.56	11538.7
2210.99	11422
2212.42	11439.1
2213.86	11452.1
2215.29	11410.6
2216.72	11403.4
2218.15	11360.2
2219.59	11351
2221.02	11345.4
2222.45	11377.7
2223.88	11306.8
2225.31	11276.9
2226.74	11304.8
2228.17	11331.9
2229.6	11265.2
2231.03	11273.1
2232.46	11258.4
2233.89	11227.7
2235.32	11223.9
2236.75	11198.5
2238.18	11167.7
2239.61	11194.4
2241.04	11172.7
2242.46	11164.7
2243.89	11140.7
2245.32	11182.1
2246.75	11093.3
2248.17	11106.2
2249.6	11100.2
2251.03	11047.8
2252.45	11049.9
2253.88	11056
2255.31	11026.7
2256.73	11007.1
2258.16	10977.2
2259.58	10947.1
2261	10953.2
2262.43	10936.1
2263.85	10931.1
2265.28	10923.6
2266.7	10847.6
2268.12	10856.7
2269.55	10933
2270.97	10819.3
2272.39	10822.5
2273.81	10808.3
2275.24	10811
2276.66	10759
2278.08	10780.1
2279.5	10745.6
2280.92	10748.4
2282.34	10711.5
2283.76	10717.8
2285.18	10709.2
2286.6	10679.5
2288.02	10692.4
2289.44	10683.4
2290.86	10686.8
2292.28	10659.4
2293.7	10622.9
2295.12	10639.8
2296.54	10603.9
2297.95	10623.4
2299.37	10581.4
2300.79	10582.2
2302.21	10557.4
2303.62	10524.2
2305.04	10547.5
2306.46	10536.6
2307.87	10466.5
2309.29	10520.3
2310.7	10523.3
2312.12	10494.9
2313.53	10476.5
2314.95	10450.7
2316.36	10432.8
2317.78	10403.1
2319.19	10387.2
2320.61	10383.8
2322.02	10381.2
2323.43	10366.9
2324.85	10394.6
2326.26	10446.3
2327.67	10534.6
2329.08	10626.5
2330.5	10589.3
2331.91	10501.5
2333.32	10305.1
2334.73	10226.9
2336.14	10206.2
2337.55	10216.5
2338.96	10207.9
2340.37	10196.5
2341.78	10161.2
2343.19	10151
2344.6	10139.6
2346.01	10137.2
2347.42	10099.5
2348.83	10092.6
2350.24	10067.4
2351.65	10098.7
2353.05	10104.8
2354.46	10034.2
2355.87	10020.1
2357.28	9986.66
2358.68	9993.93
2360.09	9976.37
2361.5	9977.47
2362.9	9928.17
2364.31	9945.6
2365.71	9931.29
2367.12	9936.25
2368.52	9917.46
2369.93	9918.26
2371.33	9847.17
2372.74	9845.48
2374.14	9856.18
2375.55	9827.07
2376.95	9872.26
2378.35	9788.93
2379.76	9849.73
2381.16	9796.06
2382.56	9770.24
2383.96	9781.22
2385.37	9758.39
2386.77	9763.42
2388.17	9800.25
2389.57	9794.36
2390.97	9726.3
2392.37	9703.54
2393.77	9728.93
2395.17	9727.31
2396.57	9680.57
2397.97	9676
2399.37	9700.11
2400.77	9635.24
2402.17	9672.81
2403.57	9609.33
2404.97	9629.6
2406.37	9593.83
2407.77	9594.13
2409.16	9601.34
2410.56	9616.14
2411.96	9580.81
2413.36	9546.79
2414.75	9540.41
2416.15	9559.79
2417.55	9569.65
2418.94	9538.28
2420.34	9523.92
2421.73	9487.25
2423.13	9493.77
2424.52	9517.02
2425.92	9448.45
2427.31	9424.37
2428.71	9495.09
2430.1	9435.34
2431.5	9398.79
2432.89	9418.99
2434.28	9410.27
2435.68	9447.32
2437.07	9401.27
2438.46	9353.47
2439.85	9427.52
2441.25	9364.95
2442.64	9337.16
2444.03	9370.13
2445.42	9375.99
2446.81	9333.65
2448.2	9311.81
2449.59	9320.38
2450.98	9288.02
2452.37	9313.71
2453.76	9244.38
2455.15	9285.05
2456.54	9254.31
2457.93	9273.37
2459.32	9265.24
2460.71	9210.9
2462.1	9215.12
2463.49	9209.6
2464.87	9184.31
2466.26	9192.19
2467.65	9180.42
2469.04	9175.29
2470.42	9130.13
2471.81	9188.05
2473.2	9133.1
2474.58	9116.01
2475.97	9105.56
2477.35	9087.56
2478.74	9117.33
2480.12	9082.53
2481.51	9138.25
2482.89	9092.59
2484.28	9081.6
2485.66	9096.05
2487.05	9016
2488.43	9037.26
2489.81	9028.01
2491.2	9021.44
2492.58	9011.03
2493.96	9016.85
2495.34	8970.05
2496.73	8957.82
2498.11	8966.69
2499.49	8967.43
2500.87	8898.68
2502.25	8940.09
2503.63	8947.41
2505.01	8931.44
2506.39	8890.75
2507.77	8873.47
2509.15	8882.04
2510.53	8881.14
2511.91	8891.7
2513.29	8842.86
2514.67	8878.67
2516.05	8819.83
2517.43	8801.59
2518.81	8818.41
2520.19	8834.7
2521.56	8816.61
2522.94	8809.88
2524.32	8826.07
2525.7	8821.66
2527.07	8811.23
2528.45	8777.39
2529.82	8740.26
2531.2	8758.78
2532.58	8780.27
2533.95	8766.65
2535.33	8716.87
2536.7	8787.1
2538.08	8747.88
2539.45	8748.68
2540.82	8716.1
2542.2	8711.99
2543.57	8684.76
2544.95	8647.12
2546.32	8668.32
2547.69	8619.82
2549.07	8612.56
2550.44	8665.95
2551.81	8600.09
2553.18	8595.15
2554.55	8587.56
2555.93	8588.58
2557.3	8560.16
2558.67	8594.36
2560.04	8557.13
2561.41	8562.63
2562.78	8534.12
2564.15	8546.08
2565.52	8534.48
2566.89	8512.46
2568.26	8519.64
2569.63	8479.76
2571	8499.7
2572.36	8510.25
2573.73	8450.99
2575.1	8506.33
2576.47	8506.89
2577.84	8492.54
2579.2	8509.99
2580.57	8478
2581.94	8481.77
2583.31	8502.35
2584.67	8447.61
2586.04	8454.78
2587.4	8502.83
2588.77	8483.31
2590.14	8464.86
2591.5	8470.4
2592.87	8444.69
2594.23	8483.94
2595.6	8438.23
2596.96	8462.96
2598.32	8428.07
2599.69	8453.61
2601.05	8393.25
2602.41	8451.52
2603.78	8406.09
2605.14	8388.14
2606.5	8381.68
2607.86	8372.27
2609.23	8390.18
2610.59	8385.68
2611.95	8402
2613.31	8374.1
2614.67	8328.12
2616.03	8361.77
2617.4	8349.14
2618.75	8355.38
2620.11	8314.03
2621.48	8303.42
2622.83	8318.78
2624.19	8278.06
2625.55	8324.56
2626.91	8326.81
2628.27	8313.12
2629.63	8296.36
2630.99	8277.53
2632.35	8278.27
2633.7	8305.03
2635.06	8305.83
2636.42	8249.03
2637.77	8288.67
2639.13	8250.66
2640.49	8243.27
2641.84	8219.78
2643.2	8258.28
2644.56	8239.67
2645.91	8266.95
2647.27	8244.6
2648.62	8232.82
2649.98	8214.5
2651.33	8251.84
2652.69	8230.51
2654.04	8219.5
2655.4	8216.58
2656.75	8215.53
2658.1	8212.75
2659.45	8223.25
2660.81	8208.35
2662.16	8219.75
2663.51	8234.72
2664.86	8187.6
2666.22	8206.01
2667.57	8209.6
2668.92	8233.71
2670.27	8237.14
2671.62	8233.23
2672.97	8214.44
2674.32	8187.21
2675.67	8177.45
2677.02	8173.44
2678.37	8211.99
2679.72	8175.44
2681.07	8135.88
2682.42	8138.83
2683.77	8143.32
2685.12	8124.43
2686.47	8161.7
2687.81	8139.02
2689.16	8136.1
2690.51	8114.14
2691.86	8112.08
2693.21	8088.43
2694.55	8140.57
2695.9	8090.72
2697.25	8101.66
2698.59	8105.99
2699.94	8125.45
2701.28	8131.86
2702.63	8091.92
2703.97	8149.57
2705.32	8176.58
2706.66	8168.37
2708.01	8161.42
2709.35	8189.54
2710.7	8189.1
2712.04	8194.83
2713.39	8181.11
2714.73	8218.98
2716.07	8219.43
2717.41	8243.86
2718.76	8218.48
2720.1	8251.2
2721.44	8243.07
2722.78	8207.96
2724.12	8242.64
2725.47	8213.29
2726.81	8254.87
2728.15	8250.95
2729.49	8242.26
2730.83	8198.05
2732.17	8186.34
2733.51	8159.42
2734.85	8107.71
2736.19	8065.81
2737.53	8058.89
2738.87	7985.71
2740.21	7988.49
2741.55	7946.51
2742.88	7903.04
2744.22	7880.99
2745.56	7858.83
2746.9	7850.34
2748.24	7806.67
2749.57	7802.13
2750.91	7754.61
2752.25	7711.47
2753.58	7726.39
2754.92	7722.62
2756.25	7711.81
2757.59	7693.15
2758.93	7664.45
2760.26	7655.12
2761.6	7668.55
2762.93	7689.86
2764.27	7637.88
2765.6	7665.58
2766.93	7655.58
2768.27	7621.64
2769.6	7610.09
2770.94	7632.65
2772.27	7573.14
2773.6	7595.31
2774.93	7609.44
2776.27	7563.29
2777.6	7549.4
2778.93	7577.14
2780.26	7535.95
2781.59	7538.54
2782.93	7515.73
2784.26	7522.59
2785.59	7504.54
2786.92	7457.98
2788.25	7468.32
2789.58	7471.35
2790.91	7539.49
2792.24	7511.01
2793.57	7508.57
2794.9	7519
2796.23	7527.25
2797.56	7485.36
2798.88	7513.64
2800.21	7549.23
2801.54	7540.89
2802.87	7494.99
2804.2	7518.84
2805.52	7511.66
2806.85	7534.91
2808.18	7541.57
2809.5	7509.73
2810.83	7521.84
2812.16	7555.5
2813.48	7577.76
2814.81	7561.32
2816.13	7598.74
2817.46	7618.4
2818.78	7597.16
2820.11	7636.02
2821.43	7685.69
2822.76	7710.82
2824.08	7739.61
2825.4	7764.29
2826.73	7832.37
2828.05	7922.95
2829.37	7984.39
2830.7	8061.02
2832.02	8164.7
2833.34	8260.92
2834.66	8442.8
2835.99	8593.37
2837.31	8844.29
2838.63	9161.06
2839.95	9556.07
2841.27	9984.02
2842.59	10627.3
2843.91	11287.8
2845.23	12076.3
2846.55	12845.3
2847.87	13619
2849.19	14136.5
2850.51	14579.5
2851.83	14759.4
2853.15	14689.1
2854.47	14517.5
2855.79	14304.7
2857.11	14091.6
2858.43	13785.5
2859.74	13604.4
2861.06	13442.2
2862.38	13295.8
2863.69	13066.1
2865.01	12990.5
2866.33	12932.7
2867.65	12972.9
2868.96	13007.3
2870.28	13120.9
2871.59	13234.3
2872.91	13435.4
2874.22	13548.7
2875.54	13674.9
2876.85	13777.3
2878.17	13891.5
2879.48	14019.2
2880.8	14139.3
2882.11	14226.9
2883.42	14371.5
2884.74	14386.4
2886.05	14388.1
2887.36	14399.3
2888.68	14400.5
2889.99	14412.3
2891.3	14383.1
2892.61	14410.9
2893.93	14389.1
2895.24	14338.8
2896.55	14332.8
2897.86	14369
2899.17	14332.2
2900.48	14310.7
2901.79	14263.3
2903.1	14269.3
2904.41	14227
2905.72	14212.5
2907.03	14185
2908.34	14114
2909.65	14110.8
2910.96	14086.2
2912.27	14102.6
2913.57	14025
2914.88	14001.5
2916.19	13998.2
2917.5	13944.7
2918.81	13896.6
2920.11	13942.8
2921.42	13912.7
2922.73	13926.3
2924.03	13991.2
2925.34	13897.6
2926.64	13972.4
2927.95	14004.5
2929.26	13941
2930.56	13996.4
2931.87	13945.6
2933.17	13909.3
2934.48	13896.9
2935.78	13817.7
2937.09	13693.7
2938.39	13527.7
2939.69	13312.1
2941	12979.5
2942.3	12663.7
2943.6	12300.4
2944.91	11940.9
2946.21	11657.7
2947.51	11334.5
2948.81	11124.4
2950.12	10916
2951.42	10730.7
2952.72	10586.6
2954.02	10528.8
2955.32	10477.7
2956.62	10374.3
2957.92	10326.8
2959.22	10272.6
2960.52	10182.1
2961.82	10070.3
2963.12	10029.7
2964.42	9914.29
2965.72	9755.91
2967.02	9624.51
2968.32	9556.6
2969.62	9380.41
2970.92	9255.85
2972.21	9143.83
2973.51	9011.2
2974.81	8894.19
2976.11	8802.27
2977.4	8704.12
2978.7	8569.66
2980	8524.4
2981.29	8479.52
2982.59	8372.73
2983.89	8336.77
2985.18	8205.43
2986.48	8151.97
2987.77	8098.05
2989.07	8031.59
2990.36	8000.23
2991.66	7967.9
2992.95	7924.27
2994.25	7867.01
2995.54	7825.99
2996.84	7851.75
2998.13	7809.78
2999.42	7817.53
3000.72	7759.55
3002.01	7780.96
3003.3	7779.26
3004.59	7757.83
3005.89	7753.72
3007.18	7727.92
3008.47	7689.24
3009.76	7636.53
3011.05	7596.14
3012.34	7584.14
3013.63	7480.48
3014.93	7440.64
3016.22	7399.87
3017.5	7336.31
3018.8	7315.74
3020.09	7258.2
3021.38	7254.25
3022.67	7152.64
3023.95	7173.12
3025.24	7133.96
3026.53	7112.1
3027.82	7089.16
3029.11	7058.34
3030.4	7051.59
3031.68	7006.11
3032.97	7001.18
3034.26	7026.08
3035.54	6976.03
3036.83	6979.73
3038.12	6968.93
3039.4	7005.95
3040.69	6947.08
3041.98	6981.73
3043.26	6982.25
3044.55	6995.18
3045.83	6957.17
3047.12	6966.79
3048.4	6986.76
3049.69	7002.7
3050.97	7006.32
3052.26	7029.37
3053.54	7031.38
3054.82	7030.23
3056.11	6994.49
3057.39	7046.3
3058.67	7027.37
3059.96	7094.23
3061.24	7026.08
3062.52	7073.29
3063.8	7073.79
3065.09	7083.37
3066.37	7070.4
3067.65	7060.41
3068.93	7053.23
3070.21	7086.67
3071.49	7083.92
3072.77	7025.04
3074.05	7050.89
3075.33	6988.2
3076.61	7013.81
3077.89	7009.21
3079.17	7017.33
3080.45	7011.65
3081.73	7040.71
3083.01	6975.6
3084.29	7026.98
3085.57	7032.52
3086.84	7029.25
3088.12	7034.95
3089.4	7038.76
3090.68	7046.96
3091.95	7049.83
3093.23	7061.56
3094.51	7080.11
3095.79	7084.28
3097.06	7086.4
3098.34	7100.31
3099.61	7072.86
3100.89	7055.12
3102.17	7133.25
3103.44	7102.08
3104.72	7149.61
3105.99	7184.38
3107.27	7173.92
3108.54	7187.98
3109.81	7172.34
3111.09	7210.91
3112.36	7199.53
3113.63	7257.5
3114.91	7210.73
3116.18	7270.41
3117.46	7240.88
3118.73	7281.38
3120	7287.99
3121.27	7318.76
3122.54	7326.1
3123.82	7326.44
3125.09	7337.7
3126.36	7361.02
3127.63	7360.79
3128.9	7388
3130.17	7467.01
3131.44	7414.92
3132.71	7415.86
3133.98	7473.83
3135.25	7461.83
3136.52	7527.97
3137.79	7501.63
3139.06	7521.51
3140.33	7502.04
3141.6	7541.77
3142.86	7570.27
3144.13	7571.61
3145.4	7571.15
3146.67	7604.48
3147.94	7667.96
3149.2	7641.45
3150.47	7700.42
3151.74	7673.25
3153	7725.12
3154.27	7718.45
3155.54	7759.83
3156.8	7753.91
3158.07	7741.91
3159.34	7812.61
3160.6	7776.68
3161.86	7816.03
3163.13	7834.51
3164.4	7848.83
3165.66	7868.65
3166.92	7898.33
3168.19	7910.81
3169.45	7925.7
3170.72	7928.64
3171.98	7924.21
3173.24	7956.6
3174.5	7893.83
3175.77	7945.76
3177.03	7947.58
3178.29	7943.08
3179.56	7954.58
3180.82	7953.02
3182.08	7986.33
3183.34	7992.67
3184.6	8019.43
3185.86	8001.72
3187.12	8006.78
3188.38	8040.48
3189.64	8015.6
3190.9	8012.57
3192.16	7994.98
3193.42	8002.7
3194.68	7984.2
3195.94	7982.06
3197.2	8058.74
3198.46	7992.4
3199.72	8026.71
3200.98	8002.29
3202.24	8019.19
3203.49	8044.29
3204.75	8047.62
3206.01	8028.43
3207.27	8047.54
3208.52	8031.57
3209.78	8044.35
3211.04	8030.41
3212.29	8021.06
3213.55	8007.83
3214.81	7993.72
3216.06	8026.06
3217.32	8025.06
3218.57	8009.27
3219.83	8005.67
3221.08	8016
3222.34	8017.45
3223.59	8003.3
3224.85	8000.48
3226.1	8002.6
3227.35	8032.83
3228.61	8008.71
3229.86	8016.58
3231.11	7991.43
3232.37	7991.92
3233.62	8011
3234.87	7992.07
3236.12	7987.66
3237.38	7984.76
3238.63	7993.08
3239.88	7967.38
3241.13	7957.15
3242.38	7964.12
3243.63	7951.1
3244.89	7929.96
3246.14	7945.89
3247.39	7933.54
3248.64	7920.08
3249.89	7905.59
3251.14	7914.53
3252.39	7911.35
3253.64	7903.65
3254.88	7908.63
3256.13	7906.47
3257.38	7881.23
3258.63	7864.67
3259.88	7853.1
3261.13	7848.69
3262.37	7851.65
3263.62	7841.93
3264.87	7831.5
3266.12	7824.69
3267.36	7823.41
3268.61	7835.39
3269.86	7826.02
3271.1	7791.08
3272.35	7788.34
3273.6	7797.43
3274.84	7811.5
3276.09	7792.66
3277.33	7774.59
3278.58	7770.53
3279.82	7741.08
3281.07	7720.93
3282.31	7736.76
3283.56	7741.18
3284.8	7723.12
3286.04	7723.52
3287.29	7725.57
3288.53	7704.63
3289.77	7702.56
3291.02	7715.86
3292.26	7699.16
3292.9	7682.94
3294.15	7650.87
3295.39	7667.97
3296.64	7645.71
3297.89	7690.21
3299.14	7692.25
3300.38	7695.33
3301.63	7664.91
3302.88	7647.29
3304.12	7632.07
3305.37	7655.21
3306.62	7630.93
3307.86	7653.98
3309.11	7626.55
3310.35	7635.76
3311.6	7595.14
3312.84	7616.35
3314.09	7604.35
3315.34	7603.35
3316.58	7585.79
3317.82	7596.57
3319.07	7609.01
3320.31	7594.94
3321.56	7588.49
3322.8	7600.93
3324.04	7616.52
3325.29	7576.42
3326.53	7578.61
3327.77	7584.92
3329.01	7586.67
3330.25	7566.18
3331.5	7544.57
3332.74	7573.36
3333.98	7551.63
3335.22	7591.17
3336.46	7562.13
3337.7	7585.56
3338.94	7588.63
3340.19	7553.84
3341.42	7576.57
3342.67	7549.19
3343.9	7511.33
3345.15	7528.82
3346.38	7526.95
3347.62	7535.43
3348.86	7530.35
3350.1	7537.66
3351.34	7515.25
3352.58	7545.6
3353.82	7494.53
3355.06	7517.31
3356.29	7499.06
3357.53	7497.42
3358.77	7469.72
3360	7558.39
3361.24	7505.63
3362.48	7511.7
3363.71	7486.45
3364.95	7504.6
3366.19	7516.77
3367.42	7520.08
3368.66	7499.27
3369.89	7490.54
3371.13	7521.72
3372.36	7483.23
3373.6	7513.47
3374.83	7523.81
3376.07	7534.43
3377.3	7509.3
3378.54	7506.9
3379.77	7487.88
3381	7515.39
3382.24	7461.25
3383.47	7458.24
3384.7	7464.47
3385.94	7473.25
3387.17	7455.3
3388.4	7471.38
3389.63	7454.35
3390.87	7460.05
3392.1	7462.38
3393.33	7467.53
3394.56	7453.7
3395.79	7470.61
3397.02	7434.02
3398.25	7440.02
3399.48	7442.18
3400.71	7451.29
3401.94	7414.14
3403.17	7428.5
3404.4	7453.88
3405.63	7452.53
3406.86	7466
3408.09	7426.76
3409.32	7436.83
3410.55	7415.29
3411.78	7389.3
3413	7441.1
3414.23	7415.73
3415.46	7389.04
3416.69	7379.85
3417.92	7403.54
3419.14	7389.11
3420.37	7354.27
3421.6	7345.75
3422.82	7358.3
3424.05	7358.89
3425.27	7353.6
3426.5	7354.22
3427.73	7287.78
3428.95	7303.61
3430.18	7309.36
3431.4	7315.33
3432.63	7299.89
3433.85	7299.66
3435.08	7297.42
3436.3	7288.21
3437.53	7234.5
3438.75	7261.76
3439.97	7252.15
3441.2	7247.44
3442.42	7216.89
3443.64	7157.71
3444.86	7196.22
3446.09	7182.41
3447.31	7214.03
3448.53	7171.18
3449.75	7166
3450.98	7115.31
3452.2	7132.77
3453.42	7122.07
3454.64	7136.14
3455.86	7102.49
3457.08	7099.85
3458.3	7106.33
3459.52	7078.89
3460.74	7114.56
3461.96	7040.44
3463.18	7057.72
3464.4	7023.98
3465.62	6999.03
3466.84	7013.72
3468.06	6978.34
3469.28	6978.29
3470.5	6973.02
3471.72	6975.37
3472.93	6923.02
3474.15	6926.24
3475.37	6890.59
3476.59	6888.44
3477.8	6845.21
3479.02	6861.99
3480.24	6840.83
3481.45	6829.98
3482.67	6833.52
3483.89	6783.73
3485.1	6771.99
3486.32	6771.1
3487.53	6754.64
3488.75	6705.11
3489.96	6724.85
3491.18	6679.33
3492.39	6686.76
3493.61	6650.12
3494.82	6642.91
3496.04	6608.64
3497.25	6611.43
3498.47	6606.87
3499.68	6583.59
