#Acq. time (s)=	10
#Accumulations=	10
#Range (cm-¹)=	400...3500
#Windows=	3
#Auto scanning=	Off
#Autofocus=	Off
#AutoExposure=	Off
#Spike filter=	Multiple accum.
#Delay time (s)=	0
#Binning=	1
#Readout mode=	Signal
#DeNoise=	Off
#ICS correction=	On
#Dark correction=	Off
#Inst. Process=	Off
#Detector Gain=	Best Dynamic Range
#Detector ADC=	45 kHz       
#Detector temperature (°C)=	-60.1
#Instrument=	LabRAM HR Evol
#Detector=	Syncerity OE
#Objective=	x50_VIS_LWD
#Grating=	600 (500nm)
#ND Filter=	50%
#Laser=	532nm_Edge
#Hole=	199.981
#Range=	Visible
#E-Cal_Neon=	0
#StageXY=	75x50mm Scan+
#StageZ=	Z motor
#X (µm)=	0
#Y (µm)=	0
#Z (µm)=	114.3
#Spectral res.(cm-¹)=	12.8
#Full time(mm:ss)=	5:19
#AC=	Calibrated 2025-07-01 10:31
#Project=	
#Sample=	
#Site=	
#Title=	D_1
#Remark=	
#Date=	01.07.2025 11:10 (India Standard Time)
#Acquired=	01.07.2025 11:10:58 (India Standard Time)
#AxisType[0]=Intens
#AxisUnit[0]=Cnt
#AxisType[1]=Spectr
#AxisUnit[1]=1/cm
400.083	21830.9
401.858	21749.8
403.63	21738.3
405.405	21798.5
407.176	21819.3
408.949	21779.8
410.72	21843.7
412.493	21758.2
414.263	21797.6
416.033	21886.6
417.805	21845.9
419.574	21840.1
421.345	21876
423.114	21843
424.884	21839.9
426.652	21886.2
428.421	21883.9
430.188	21890.5
431.955	21870.8
433.724	21993.3
435.49	22016.8
437.258	21895.4
439.023	21904.3
440.788	21884.2
442.555	21901.6
444.32	21884.3
446.084	21883.9
447.85	21874
449.613	21943.7
451.376	21924.5
453.141	21913.8
454.904	22003.4
456.666	21932.4
458.429	21939.4
460.191	21901
461.952	21844.8
463.715	21916.5
465.475	21925.4
467.235	21886.2
468.995	21904.6
470.756	21938.3
472.515	21936.2
474.274	21962.6
476.032	21914.8
477.793	21985.6
479.55	21947.6
481.308	22005.7
483.065	22011.1
484.823	21939.7
486.58	22006.4
488.336	22005.2
490.091	22033.2
491.847	22017.8
493.604	22003.6
495.358	21971.2
497.113	22045.3
498.867	22068.7
500.62	22107.6
502.374	22174.2
504.127	22159.8
505.881	22180.1
507.634	22202.9
509.386	22178.4
511.137	22209.2
512.888	22215.4
514.639	22279.6
516.39	22261
518.14	22196
519.89	22213.5
521.642	22243
523.391	22220.3
525.14	22203.5
526.889	22201.6
528.637	22194.2
530.385	22112
532.133	22158.3
533.88	22198.7
535.627	22155.9
537.373	22172.3
539.12	22152.7
540.866	22087.6
542.611	22111.4
544.357	22117.2
546.101	22102.4
547.846	22168.2
549.59	22063.9
551.334	22146.2
553.078	22178.6
554.821	22147.9
556.564	22193.3
558.307	22174.9
560.049	22186.9
561.789	22134.6
563.53	22185.4
565.272	22197.8
567.013	22194.9
568.753	22228.8
570.494	22148.4
572.233	22219.6
573.973	22242.7
575.712	22277.2
577.449	22225.2
579.188	22347.2
580.926	22253.8
582.664	22272.2
584.402	22312.3
586.139	22267.4
587.876	22282.2
589.611	22338.5
591.347	22265.6
593.083	22329.4
594.818	22339.7
596.554	22356.6
598.287	22361.4
600.021	22296.4
601.756	22320
603.49	22377.3
605.221	22304.7
606.955	22332
608.688	22309.7
610.42	22383.4
612.15	22300.7
613.882	22258.7
615.614	22282.6
617.345	22309.2
619.074	22375.2
620.805	22223.5
622.535	22228
624.263	22222.2
625.993	22161.3
627.722	22222.9
629.45	22237.3
631.178	22107.3
632.907	22170.5
634.633	22192
636.36	22219.9
638.088	22191.6
639.813	22182.4
641.539	22259.7
643.264	22125.2
644.99	22087.8
646.716	22168.1
648.439	22089.4
650.164	22110.3
651.887	22128.5
653.611	22157.6
655.335	22166.1
657.057	22105.9
658.781	22199.9
660.502	22183.8
662.225	22154.7
663.945	22138.3
665.667	22166.8
667.387	22124.3
669.108	22127.5
670.828	22214.8
672.548	22206.4
674.267	22239.9
675.987	22182.4
677.705	22204.3
679.424	22184.7
681.142	22255.6
682.86	22260.7
684.577	22211.4
686.293	22281.4
688.011	22200.2
689.727	22223.4
691.444	22250.8
693.159	22216
694.875	22272
696.59	22318.4
698.304	22268.1
700.019	22277.5
701.733	22286
703.448	22281.3
705.16	22315.5
706.872	22216.8
708.586	22195.3
710.298	22247.7
712.01	22141.9
713.723	22231.4
715.433	22265.6
717.144	22147.9
718.856	22248.2
720.565	22282.5
722.275	22282.1
723.984	22212.1
725.695	22250.5
727.403	22203.3
729.111	22234.1
730.821	22158.2
732.528	22232.1
734.235	22197.2
735.942	22211.5
737.651	22199.3
739.357	22202.8
741.063	22152.1
742.768	22139.8
744.474	22154.3
746.18	22194.2
747.885	22191
749.589	22112.6
751.293	22244.9
752.997	22277.1
754.702	22258.1
756.405	22281.6
758.108	22312.3
759.81	22310.5
761.512	22229.9
763.214	22227.7
764.915	22299.7
766.618	22318.8
768.319	22389.5
770.019	22341.9
771.719	22385.7
773.419	22277
775.118	22424.4
776.817	22451.6
778.516	22363.7
780.214	22434.2
781.913	22390
783.61	22364.4
785.308	22377.9
787.005	22379.8
788.702	22364
790.398	22346.1
792.095	22334.7
793.791	22362.6
795.486	22367.4
797.181	22341.8
798.876	22379.4
800.571	22310.6
802.265	22384.6
803.959	22423
805.653	22360.5
807.346	22327.1
809.039	22384
810.732	22237.2
812.424	22232.9
814.116	22215
815.808	22277.2
817.5	22309.6
819.191	22331.4
820.881	22324.6
822.572	22300.7
824.26	22370.3
825.95	22405.7
827.639	22314.5
829.329	22338.3
831.018	22360.2
832.706	22304.1
834.394	22277.7
836.08	22271.5
837.768	22255.2
839.455	22336.2
841.142	22398.4
842.829	22357.7
844.513	22357.5
846.199	22402.8
847.885	22388.5
849.57	22381.1
851.255	22351.5
852.938	22402.9
854.623	22374.1
856.307	22382.1
857.991	22394.9
859.672	22506.1
861.355	22398.6
863.038	22359.4
864.719	22356
866.401	22415.7
868.083	22407.4
869.765	22301.5
871.444	22325.6
873.125	22467.7
874.806	22548.3
876.484	22491.8
878.164	22447.6
879.844	22396.4
881.521	22374
883.2	22353.8
884.877	22362.4
886.555	22376.7
888.234	22393.3
889.909	22374.2
891.587	22344.5
893.262	22332.5
894.939	22337.2
896.616	22278.9
898.29	22289.3
899.966	22194.3
901.64	22203.4
903.315	22202.5
904.988	22169.1
906.663	22136.1
908.335	22181.8
910.009	22135.8
911.683	22146.3
913.354	22110.7
915.027	22064.2
916.698	22094.8
918.369	22072.3
920.041	22043.2
921.711	22064.1
923.383	21987.2
925.052	22029.2
926.723	22011.3
928.391	21988.3
930.062	21949.3
931.73	21896.3
933.399	21867.6
935.067	21941.5
936.734	21929.2
938.403	21920.4
940.069	22030.2
941.737	21905.2
943.403	21958.3
945.069	21929
946.736	21895.3
948.401	21888.3
950.065	21967.3
951.732	21960.3
953.396	21927.9
955.059	21915.9
956.725	21812.2
958.388	21965.8
960.051	21946.1
961.715	21985.7
963.377	21981.2
965.039	21901.7
966.7	21983.7
968.364	22017.7
970.025	21986.2
971.685	21862.9
973.345	21936.8
975.007	21947.9
976.667	21916.5
978.326	21873.7
979.985	21963.3
981.646	21934.7
983.304	21875.2
984.963	21895.4
986.62	21916.2
988.278	21945.2
989.935	21989.2
991.594	22011.6
993.25	21961.2
994.907	21996
996.563	22012.7
998.218	22110
999.874	22201.1
1001.53	22202.4
1003.19	22218.5
1004.84	22233.6
1006.49	22114.6
1008.15	22041.6
1009.8	22012
1011.45	22056.8
1013.11	21950.1
1014.76	22003.8
1016.41	21904.5
1018.06	22033.4
1019.72	21968.8
1021.37	21953.6
1023.02	21907.1
1024.67	21896.7
1026.32	21846.9
1027.97	21845.2
1029.62	21763.8
1031.27	21720.3
1032.92	21825
1034.57	21786.2
1036.22	21820.1
1037.86	21783.6
1039.51	21824.8
1041.16	21737.5
1042.81	21801.9
1044.45	21793
1046.1	21775.4
1047.75	21746.5
1049.39	21663.3
1051.04	21731.7
1052.68	21739.1
1054.33	21789.8
1055.97	21797
1057.62	21918.5
1059.26	21827.8
1060.91	21885.9
1062.55	21950.4
1064.19	21873.7
1065.83	21868.4
1067.48	21880.1
1069.12	21864.2
1070.76	21807.3
1072.4	21814.5
1074.04	21855.5
1075.68	21866.3
1077.32	21945.2
1078.97	21892.9
1080.61	21912.7
1082.24	21887.7
1083.88	21866.5
1085.52	21841.4
1087.16	21787.7
1088.8	21797.2
1090.44	21771.3
1092.08	21691.2
1093.71	21707.3
1095.35	21575.4
1096.99	21599.4
1098.62	21511.3
1100.26	21499.5
1101.9	21522.3
1103.53	21477.4
1105.17	21406.1
1106.8	21503
1108.44	21428.1
1110.07	21471.6
1111.7	21506.9
1113.34	21492.4
1114.97	21591.2
1116.6	21468
1118.23	21580.4
1119.87	21562.3
1121.5	21585.8
1123.13	21522.7
1124.76	21520.9
1126.39	21495.7
1128.03	21475.1
1129.65	21404.5
1131.29	21408.4
1132.91	21330.5
1134.54	21322.3
1136.17	21308.2
1137.8	21181.5
1139.43	21218.9
1141.06	21226.9
1142.69	21215.5
1144.31	21309.7
1145.94	21318.8
1147.57	21392.5
1149.19	21432.7
1150.82	21557.7
1152.45	21683.1
1154.07	21743.6
1155.7	21743.4
1157.32	21715.5
1158.95	21619.1
1160.57	21437
1162.2	21302.8
1163.82	21215.8
1165.44	21075.4
1167.07	21159.4
1168.69	21065
1170.31	21176.4
1171.94	21026.2
1173.56	21026.9
1175.18	21004.3
1176.8	20956.4
1178.42	20996.6
1180.04	20921
1181.66	20995.5
1183.28	20967.8
1184.9	20965.4
1186.52	20928.6
1188.14	21005.3
1189.76	20956.3
1191.38	20926.3
1192.99	20983.5
1194.61	20896.9
1196.23	20917.7
1197.85	20896.1
1199.46	20862.4
1201.08	20820.5
1202.7	20809.3
1204.31	20839.4
1205.93	20851.4
1207.54	20861
1209.16	20834.2
1210.78	20813.4
1212.39	20845.5
1214	20756.1
1215.62	20786.4
1217.23	20797.5
1218.84	20711.1
1220.46	20819.7
1222.07	20757.1
1223.68	20836
1225.29	20765.2
1226.91	20834.3
1228.52	20723.1
1230.13	20744.7
1231.74	20776.3
1233.35	20744.9
1234.96	20734.3
1236.57	20784.2
1238.18	20786.5
1239.79	20796.9
1241.4	20894.3
1243	20873.7
1244.61	20816.6
1246.22	20849.7
1247.83	20879.4
1249.43	20847.7
1251.04	20856.6
1252.65	20792.6
1254.25	20893
1255.86	20848.5
1257.47	20887.2
1259.07	20861.2
1260.68	20819.1
1262.28	20814.8
1263.89	20922.5
1265.49	20839
1267.09	20874.2
1268.7	20822.2
1270.3	20722.2
1271.9	20779.4
1273.51	20767.4
1275.11	20706.6
1276.71	20640.6
1278.31	20739.7
1279.91	20653.8
1281.52	20683.7
1283.12	20729.3
1284.72	20708.4
1286.32	20600.8
1287.92	20650.8
1289.52	20775.5
1291.12	20735.2
1292.72	20745.8
1294.31	20851
1295.91	20907
1297.51	20956.8
1299.11	20954.9
1300.71	20994.7
1302.3	21063.9
1303.9	21028.4
1305.5	21035.8
1307.09	20875.2
1308.69	20822.7
1310.28	20842.7
1311.88	20793.2
1313.47	20693.2
1315.07	20557
1316.66	20560.2
1318.26	20513.7
1319.85	20465.7
1321.44	20460.3
1323.04	20472.4
1324.63	20383.3
1326.22	20367.1
1327.82	20446.5
1329.41	20390.6
1331	20391.1
1332.59	20302.2
1334.18	20354.5
1335.77	20364.9
1337.36	20256.9
1338.95	20351.8
1340.54	20328
1342.13	20363.8
1343.72	20292.5
1345.31	20249.9
1346.9	20291.9
1348.49	20257.4
1350.07	20224.1
1351.66	20260.5
1353.25	20183.7
1354.84	20172.8
1356.42	20075.4
1358.01	20141
1359.6	20115.7
1361.18	20032.6
1362.77	20082.7
1364.35	20060.9
1365.94	20058.5
1367.52	20011.9
1369.11	20044.8
1370.69	19993.1
1372.28	19987.1
1373.86	19959.7
1375.44	19809.1
1377.02	19813.9
1378.61	19823.3
1380.19	19741.1
1381.77	19780.7
1383.35	19709.8
1384.93	19745.1
1386.52	19759.5
1388.1	19755.1
1389.68	19822.4
1391.26	19770.3
1392.84	19751.9
1394.41	19700.1
1396	19693.5
1397.57	19715.9
1399.15	19675.1
1400.73	19620.9
1402.31	19609.3
1403.89	19656.4
1405.46	19581.7
1407.04	19625.2
1408.62	19642.9
1410.19	19601.5
1411.77	19714.5
1413.35	19693
1414.92	19686.9
1416.5	19746.4
1418.07	19752.2
1419.65	19794.3
1421.22	19771.1
1422.8	19817.7
1424.37	19843
1425.94	19796.8
1427.52	19991.8
1429.09	20101.8
1430.66	20218.7
1432.23	20392.4
1433.8	20523.7
1435.38	20585.9
1436.95	20756.5
1438.52	20768.5
1440.09	20723.2
1441.66	20724.6
1443.23	20685.2
1444.8	20626.3
1446.37	20623.4
1447.94	20591.7
1449.51	20613.6
1451.08	20531.6
1452.65	20436
1454.22	20361.7
1455.78	20297.8
1457.35	20276.7
1458.92	20179.8
1460.48	20077.6
1462.05	20095.2
1463.62	19966.1
1465.18	19949.1
1466.75	19821.5
1468.31	19687.1
1469.88	19650.2
1471.44	19515.1
1473.01	19467.9
1474.57	19371.4
1476.14	19291.7
1477.7	19285
1479.26	19172.2
1480.83	19219.9
1482.39	19110.1
1483.95	19118
1485.51	19112.6
1487.08	19059.5
1488.64	19148
1490.2	19070.6
1491.76	19106.9
1493.32	19060.3
1494.88	19116.2
1496.44	19163.8
1498	19100.4
1499.56	19066.1
1501.12	19088.2
1502.68	19099.9
1504.24	19140.7
1505.8	19107
1507.35	19139.6
1508.91	19165.1
1510.47	19203.5
1512.03	19245.8
1513.58	19279.2
1515.14	19357.7
1516.69	19446.7
1518.25	19443.4
1519.81	19447.1
1521.36	19449.9
1522.92	19440.6
1524.47	19385.1
1526.03	19258.3
1527.58	19218.3
1529.13	19192.4
1530.69	19085.7
1532.24	18987.4
1533.79	18920.9
1535.35	18805
1536.9	18738
1538.45	18777.6
1540	18739.9
1541.55	18694.8
1543.11	18673
1544.66	18665.4
1546.21	18707.1
1547.76	18628.2
1549.31	18582.2
1550.86	18592.3
1552.41	18588.9
1553.96	18620.8
1555.5	18660.8
1557.05	18590.9
1558.6	18597.7
1560.15	18558
1561.7	18602.8
1563.24	18623
1564.79	18570.2
1566.34	18537.2
1567.88	18524.2
1569.43	18580.1
1570.98	18589.6
1572.52	18594.4
1574.07	18529.7
1575.61	18459.1
1577.16	18449.7
1578.7	18458.8
1580.25	18497.1
1581.79	18498.2
1583.34	18474.3
1584.88	18489.8
1586.42	18466.4
1587.96	18498.3
1589.51	18486.4
1591.05	18417.6
1592.59	18425.2
1594.13	18441
1595.67	18416.7
1597.21	18487.2
1598.76	18326.5
1600.3	18465.8
1601.83	18475
1603.37	18369.6
1604.92	18330.7
1606.45	18341.3
1607.99	18375.3
1609.53	18354.3
1611.07	18274.9
1612.61	18284.8
1614.15	18259.9
1615.68	18280.7
1617.22	18241.4
1618.76	18202.8
1620.29	18207
1621.83	18254.3
1623.37	18249.4
1624.9	18221.6
1626.44	18243.5
1627.97	18226.6
1629.51	18229.8
1631.04	18265.4
1632.58	18228.5
1634.11	18209.2
1635.64	18185.7
1637.18	18202
1638.71	18237.5
1640.24	18250.2
1641.78	18249
1643.31	18285.7
1644.84	18302.3
1646.37	18370.2
1647.9	18379.2
1649.44	18505.8
1650.97	18589.4
1652.5	18530.4
1654.03	18574.2
1655.56	18522.7
1657.09	18460.2
1658.62	18390.8
1660.14	18325.5
1661.67	18259.2
1663.2	18213.7
1664.73	18174.2
1666.26	18132.8
1667.79	18082
1669.31	18157
1670.84	17991
1672.37	18052.5
1673.89	17989.3
1675.42	17954
1676.95	17908.9
1678.47	17863
1680	17847.4
1681.52	17808.9
1683.05	17759.3
1684.57	17727
1686.1	17763.8
1687.62	17652.6
1689.14	17664.5
1690.67	17651.2
1692.19	17699.4
1693.71	17626.7
1695.23	17570.2
1696.76	17557.8
1698.28	17501
1699.8	17479.8
1701.32	17458.7
1702.84	17461.3
1704.36	17418.3
1705.88	17456.4
1707.4	17343.5
1708.92	17424.3
1710.44	17369.8
1711.96	17329.5
1713.48	17395.7
1715	17317.5
1716.52	17299.5
1718.04	17300.6
1719.56	17319.5
1721.07	17279.8
1722.59	17281.3
1724.11	17336.6
1725.63	17263.6
1727.14	17268.8
1728.66	17281.2
1730.17	17234.3
1731.69	17265.8
1733.2	17272.3
1734.72	17322.5
1736.23	17325.7
1737.75	17357
1739.26	17323.5
1740.78	17324.1
1742.29	17353.8
1743.8	17336.7
1745.32	17346.1
1746.83	17289.7
1748.34	17309
1749.86	17196.4
1751.37	17264.3
1752.88	17240
1754.39	17114.4
1755.9	17089.2
1757.41	17100.2
1758.92	17119.1
1760.43	17001.9
1761.94	17006.7
1763.45	16974
1764.96	16923.1
1766.47	16952.6
1767.98	16943.8
1769.49	16988.9
1771	16892.3
1772.5	16942.4
1774.01	16907.9
1775.52	16915.5
1777.03	16926.7
1778.53	16855.6
1780.04	16875.3
1781.55	16914.2
1783.05	16810.5
1784.56	16816.9
1786.06	16887.4
1787.57	16778.1
1789.07	16838.9
1790.58	16837.4
1792.08	16746
1793.59	16857.9
1795.09	16784.9
1796.59	16760.6
1798.1	16766.8
1799.6	16627.5
1801.1	16698.1
1802.61	16676.9
1804.11	16666
1805.61	16694.2
1807.11	16640.8
1808.61	16694.1
1810.11	16639.6
1811.61	16594.4
1813.11	16684.8
1814.61	16623.7
1816.11	16575
1817.61	16580
1819.11	16550.4
1820.61	16564.1
1822.11	16602.1
1823.61	16565.9
1825.11	16577.5
1826.6	16586.6
1828.1	16540.1
1829.6	16492.9
1831.1	16460.3
1832.59	16562.4
1834.09	16539.6
1835.59	16507.4
1837.08	16465.9
1838.58	16454.8
1840.07	16470.2
1841.57	16473.1
1843.06	16452.4
1844.56	16497.6
1846.05	16439.7
1847.54	16478.4
1849.04	16374.5
1850.53	16463.4
1852.02	16391.5
1853.52	16328.1
1855.01	16320.9
1856.5	16382.6
1857.99	16337.9
1859.49	16341.9
1860.98	16350.1
1862.47	16252.5
1863.96	16313.5
1865.45	16293.2
1866.94	16250.5
1868.43	16293.7
1869.92	16296.2
1871.41	16284.2
1872.9	16229.9
1874.39	16200.3
1875.88	16176.9
1877.37	16227.1
1878.85	16218.1
1880.34	16207.2
1881.83	16144.3
1883.32	16086.7
1884.8	16139.8
1886.29	16074
1887.78	16035.3
1889.26	16128.9
1890.75	16137.2
1892.23	16081.6
1893.72	16097.7
1895.21	16044.4
1896.69	16003.1
1898.17	15962.2
1899.66	15978.2
1901.14	15923
1902.63	15935
1904.11	15888.4
1905.59	15811.3
1907.08	15776.4
1908.56	15738.9
1910.04	15774.1
1911.52	15714.7
1913	15657.2
1914.49	15651
1915.97	15553.8
1917.45	15518.7
1918.93	15523.9
1920.41	15518.7
1921.89	15431.5
1923.37	15405.3
1924.85	15408.6
1926.33	15399.3
1927.81	15378.5
1929.29	15320.1
1930.76	15321.3
1932.24	15271.8
1933.72	15251.8
1935.2	15191
1936.67	15146.2
1938.15	15117.9
1939.63	15058.7
1941.1	15078.4
1942.58	15003.2
1944.06	15003.5
1945.53	14955.4
1947.01	15011.8
1948.48	14869
1949.96	14865.4
1951.43	14836.7
1952.91	14773.6
1954.38	14705.9
1955.86	14708.9
1957.33	14665.3
1958.8	14630.1
1960.27	14647.7
1961.75	14589
1963.22	14575.4
1964.69	14548
1966.16	14508.3
1967.64	14474.6
1969.11	14452.7
1970.58	14426
1972.05	14401.2
1973.52	14355.9
1974.99	14324.5
1976.46	14309.6
1977.93	14273.8
1979.4	14271.2
1980.87	14238.8
1982.34	14198.5
1983.81	14208.5
1985.27	14160.9
1986.74	14126.2
1988.21	14076.4
1989.68	14077.6
1991.14	14035.3
1992.61	14018.1
1994.08	13950.8
1995.55	13911.6
1997.01	13898
1998.48	13885.5
1999.94	13814.5
2001.41	13762.9
2002.87	13783.9
2004.34	13781.9
2005.8	13729.4
2007.27	13709.8
2008.73	13699
2010.19	13672.4
2011.66	13666.9
2013.12	13644.3
2014.58	13614.3
2016.05	13586.7
2017.51	13562.7
2018.97	13515.7
2020.43	13522
2021.89	13481
2023.36	13455.9
2024.82	13405.9
2026.28	13407.7
2027.74	13403.2
2029.2	13363.5
2030.66	13337.1
2032.12	13333.4
2033.58	13304.8
2035.04	13262.8
2036.49	13275.8
2037.95	13252.8
2039.41	13214.8
2040.87	13198.1
2042.33	13209.2
2043.78	13181
2045.24	13145.4
2045.76	13133.6
2047.22	13123.7
2048.69	13126.1
2050.15	13135.1
2051.61	13092.4
2053.07	13108.2
2054.54	13115.4
2056	13121.1
2057.46	13077.4
2058.92	13068.1
2060.38	13021.7
2061.84	13045.5
2063.3	13047.6
2064.76	13046.8
2066.22	13083.9
2067.68	13065.3
2069.14	13004
2070.6	12992.2
2072.06	12967.7
2073.52	13025.3
2074.98	12963.9
2076.44	13003.7
2077.89	12977.2
2079.35	12924
2080.81	12922.8
2082.27	12961.6
2083.72	12914.2
2085.18	12936.2
2086.63	12890.8
2088.09	12897.2
2089.55	12895.8
2091	12865.1
2092.46	12883.5
2093.91	12806.6
2095.37	12838.3
2096.82	12834.9
2098.28	12834.9
2099.73	12795.9
2101.18	12781.5
2102.64	12789.1
2104.09	12778.9
2105.54	12754
2106.99	12780.9
2108.45	12783.6
2109.9	12788.3
2111.35	12705.2
2112.8	12738.1
2114.25	12764.7
2115.71	12703.8
2117.16	12750.2
2118.61	12689
2120.06	12726.5
2121.51	12717.8
2122.96	12684.2
2124.4	12634.2
2125.85	12666.3
2127.3	12648.2
2128.75	12650.7
2130.2	12624.8
2131.65	12618.6
2133.09	12602
2134.54	12653.1
2135.99	12607.8
2137.44	12628.2
2138.88	12604.8
2140.33	12607.6
2141.78	12583.6
2143.22	12579.3
2144.67	12589.2
2146.11	12562.4
2147.56	12590.6
2149	12558.4
2150.45	12511.3
2151.89	12535.2
2153.34	12521.7
2154.78	12569.8
2156.22	12521.2
2157.67	12547.9
2159.11	12530.6
2160.55	12460.8
2162	12462.1
2163.44	12511.6
2164.88	12505.1
2166.32	12530.6
2167.76	12520.7
2169.2	12524.4
2170.64	12485.5
2172.09	12492.6
2173.53	12427.9
2174.97	12451.3
2176.41	12421.8
2177.85	12431.5
2179.29	12425.4
2180.72	12415.5
2182.16	12414.9
2183.6	12390.1
2185.04	12369.9
2186.48	12374
2187.92	12381
2189.35	12349.5
2190.79	12356.4
2192.23	12387.4
2193.66	12361.9
2195.1	12381
2196.54	12347.6
2197.97	12337
2199.41	12340.8
2200.84	12313.7
2202.28	12318.6
2203.71	12267.8
2205.15	12284.8
2206.58	12247.4
2208.02	12283.8
2209.45	12238.8
2210.88	12265.8
2212.32	12215.2
2213.75	12162.8
2215.18	12206.6
2216.62	12221.5
2218.05	12216.9
2219.48	12169.2
2220.91	12121.3
2222.34	12095.5
2223.78	12130
2225.21	12085.7
2226.64	12101.7
2228.07	12043.2
2229.5	12044.5
2230.93	12106.7
2232.36	12079.3
2233.79	12032.9
2235.22	12050.1
2236.65	12034.4
2238.07	12023.1
2239.5	12008.5
2240.93	11962.1
2242.36	12005.1
2243.79	11988.3
2245.21	11972
2246.64	11927.5
2248.07	11932
2249.49	11965.1
2250.92	11927.6
2252.35	11915.8
2253.77	11896
2255.2	11858.5
2256.62	11856.1
2258.05	11796.8
2259.47	11824
2260.9	11781.8
2262.32	11780.9
2263.75	11757.8
2265.17	11756.4
2266.59	11736.4
2268.02	11755.1
2269.44	11723.4
2270.86	11703.1
2272.29	11667.9
2273.71	11685.9
2275.13	11643.7
2276.55	11625.5
2277.97	11620.8
2279.39	11605.1
2280.81	11567.6
2282.24	11602.5
2283.66	11546.8
2285.08	11565.4
2286.5	11556.3
2287.92	11578.1
2289.34	11548.7
2290.75	11515.8
2292.17	11534.5
2293.59	11506.3
2295.01	11468
2296.43	11460.4
2297.85	11501.2
2299.26	11488.1
2300.68	11449.1
2302.1	11437.5
2303.51	11403.9
2304.93	11369.8
2306.35	11401.6
2307.76	11349.7
2309.18	11380
2310.6	11405.2
2312.01	11379.2
2313.43	11323.9
2314.84	11280.9
2316.25	11305.1
2317.67	11313.7
2319.08	11266.2
2320.5	11298.4
2321.91	11255.1
2323.32	11318.8
2324.74	11291.3
2326.15	11337
2327.56	11480.3
2328.98	11518.1
2330.39	11490.7
2331.8	11289
2333.21	11145.6
2334.62	11181.3
2336.03	11167.2
2337.44	11121.2
2338.85	11086.5
2340.26	11118.8
2341.67	11143.8
2343.08	11125.5
2344.49	11084.6
2345.9	11012.5
2347.31	11046.2
2348.72	11021.9
2350.13	11033.2
2351.54	10970.7
2352.94	11014.9
2354.35	10977
2355.76	11016
2357.17	10951.4
2358.57	10906.9
2359.98	10939.5
2361.39	10920
2362.79	10879.6
2364.2	10902.4
2365.6	10955.2
2367.01	10882.1
2368.41	10864.5
2369.82	10893.5
2371.22	10887
2372.63	10860
2374.03	10833.7
2375.44	10824
2376.84	10877.8
2378.24	10846.5
2379.65	10840.8
2381.05	10795.7
2382.45	10782.6
2383.85	10785.7
2385.26	10796.1
2386.66	10715.4
2388.06	10711.2
2389.46	10747.6
2390.86	10718.8
2392.26	10750.4
2393.66	10689.8
2395.06	10714
2396.46	10698.9
2397.86	10666.1
2399.26	10704.6
2400.66	10689.4
2402.06	10660
2403.46	10674
2404.86	10650.6
2406.26	10661.2
2407.66	10636.3
2409.05	10614.4
2410.45	10607.3
2411.85	10608.9
2413.24	10572.5
2414.64	10593.5
2416.04	10558
2417.43	10597.6
2418.83	10621.7
2420.23	10538.3
2421.62	10558.3
2423.02	10458.3
2424.41	10527.9
2425.81	10482.7
2427.2	10512.8
2428.6	10466
2429.99	10483.1
2431.38	10493.2
2432.78	10495.8
2434.17	10473.1
2435.56	10459.9
2436.96	10433.4
2438.35	10442.8
2439.74	10428.7
2441.13	10429.2
2442.53	10415.6
2443.92	10412.7
2445.31	10416.9
2446.7	10382.3
2448.09	10428.3
2449.48	10345.8
2450.87	10320.8
2452.26	10340
2453.65	10361.1
2455.04	10349
2456.43	10334.2
2457.82	10334.2
2459.21	10270.6
2460.6	10313.4
2461.98	10278.6
2463.37	10304.1
2464.76	10236.4
2466.15	10299.2
2467.53	10271.3
2468.92	10281.9
2470.31	10256.7
2471.7	10223.5
2473.08	10220.3
2474.47	10194.8
2475.85	10216
2477.24	10199.7
2478.63	10179.6
2480.01	10175.6
2481.39	10193.2
2482.78	10135
2484.16	10171.4
2485.55	10162.2
2486.93	10169.4
2488.32	10164.1
2489.7	10103.4
2491.08	10167.1
2492.46	10128.7
2493.85	10097.8
2495.23	10072
2496.61	10103.1
2497.99	10076.8
2499.38	10060.9
2500.76	10055.3
2502.14	10070.2
2503.52	10034.1
2504.9	10033.7
2506.28	10036.7
2507.66	9966.49
2509.04	10011.6
2510.42	9966.63
2511.8	10000.1
2513.18	9920.58
2514.56	9979.72
2515.94	9950.83
2517.31	9940.82
2518.69	9919.85
2520.07	9973.16
2521.45	9919
2522.82	9937.07
2524.2	9925.22
2525.58	9913.73
2526.96	9883.02
2528.33	9873.05
2529.71	9891.91
2531.09	9865
2532.46	9886.95
2533.84	9885.05
2535.21	9910.9
2536.59	9873.74
2537.96	9898.39
2539.34	9852.8
2540.71	9855.74
2542.08	9831.28
2543.46	9830.38
2544.83	9808.85
2546.2	9771.03
2547.58	9790.08
2548.95	9795.88
2550.32	9755.87
2551.7	9734.62
2553.07	9768.06
2554.44	9717.15
2555.81	9739.39
2557.18	9739.16
2558.55	9733.23
2559.92	9719.38
2561.29	9702.21
2562.66	9732.42
2564.03	9710.63
2565.4	9725.08
2566.77	9706.52
2568.14	9684.83
2569.51	9652.96
2570.88	9639.52
2572.25	9679.17
2573.62	9645.71
2574.99	9670.75
2576.35	9672.17
2577.72	9622.05
2579.09	9645.87
2580.46	9666.01
2581.82	9604.89
2583.19	9589.96
2584.56	9601.51
2585.92	9631.48
2587.29	9604.72
2588.65	9608.54
2590.02	9631.41
2591.38	9575.09
2592.75	9596.84
2594.11	9601.14
2595.48	9584.72
2596.84	9612.67
2598.21	9534.32
2599.57	9541.8
2600.93	9594.92
2602.3	9560.63
2603.66	9528.32
2605.02	9523.06
2606.39	9550.2
2607.75	9560.58
2609.11	9510.08
2610.47	9529.92
2611.83	9506.77
2613.19	9507.71
2614.56	9466.49
2615.92	9442.34
2617.28	9484.22
2618.64	9492.01
2620	9462.85
2621.36	9461.72
2622.72	9492.11
2624.08	9466.32
2625.44	9463.12
2626.8	9434.04
2628.15	9399.3
2629.51	9431.67
2630.87	9396.29
2632.23	9403
2633.59	9377.69
2634.94	9429.56
2636.3	9404.25
2637.66	9367.91
2639.01	9396.2
2640.37	9361.76
2641.73	9366.44
2643.08	9361.19
2644.44	9405.27
2645.79	9347.7
2647.15	9375.75
2648.5	9361.61
2649.86	9372.67
2651.21	9368.58
2652.57	9301.72
2653.92	9345.89
2655.28	9324.96
2656.63	9296.35
2657.98	9313.59
2659.33	9301.2
2660.69	9325.23
2662.04	9304.07
2663.39	9307.34
2664.75	9274.65
2666.1	9281.34
2667.45	9324.97
2668.8	9278.8
2670.15	9320.06
2671.5	9290.24
2672.85	9278.59
2674.2	9260.57
2675.55	9257.23
2676.9	9273.98
2678.25	9231.11
2679.6	9241.85
2680.95	9242.98
2682.3	9233.14
2683.65	9224.7
2685	9210.67
2686.35	9174.11
2687.7	9202.73
2689.04	9192.76
2690.39	9200.04
2691.74	9211.86
2693.09	9139.52
2694.43	9171.21
2695.78	9177.69
2697.13	9197.53
2698.47	9119.11
2699.82	9140.6
2701.16	9154.87
2702.51	9166.95
2703.85	9170.9
2705.2	9200.24
2706.54	9165.49
2707.89	9125.96
2709.23	9167.23
2710.58	9172.06
2711.92	9185.08
2713.26	9127.43
2714.61	9128.98
2715.95	9153.17
2717.29	9195.87
2718.64	9118.87
2719.98	9152.65
2721.32	9121.07
2722.66	9089.95
2724	9059.91
2725.35	9062.83
2726.69	9109.17
2728.03	9096.34
2729.37	9084.31
2730.71	9071.06
2732.05	9082.65
2733.39	9043.58
2734.73	9041.29
2736.07	8981.11
2737.41	8980.81
2738.75	9014.74
2740.09	8995.75
2741.42	9014.75
2742.76	9027.86
2744.1	8942.43
2745.44	8951.58
2746.78	8935.33
2748.11	8915.11
2749.45	8917.13
2750.79	8878.8
2752.12	8886.36
2753.46	8844.04
2754.8	8921.93
2756.13	8876.89
2757.47	8839.07
2758.81	8840.11
2760.14	8854.55
2761.47	8859.43
2762.81	8825.17
2764.14	8825.56
2765.48	8804.41
2766.81	8789.09
2768.15	8807.1
2769.48	8814.42
2770.81	8827.19
2772.15	8771.33
2773.48	8799.03
2774.81	8725.17
2776.14	8757.15
2777.48	8717.27
2778.81	8758.76
2780.14	8677.24
2781.47	8695.71
2782.8	8694.36
2784.13	8693.12
2785.47	8684.95
2786.8	8668.28
2788.13	8689.59
2789.46	8641.8
2790.79	8695.54
2792.12	8691.67
2793.44	8668.88
2794.77	8666.65
2796.1	8690.98
2797.43	8690.71
2798.76	8683.75
2800.09	8655.19
2801.42	8646.22
2802.74	8597.02
2804.07	8631.69
2805.4	8636.14
2806.73	8613.14
2808.05	8638.96
2809.38	8600.56
2810.71	8600.37
2812.03	8620.2
2813.36	8601
2814.68	8593.4
2816.01	8646.63
2817.33	8633.19
2818.66	8612.55
2819.98	8611.07
2821.31	8597.41
2822.63	8605.36
2823.96	8643.07
2825.28	8628.49
2826.6	8642.72
2827.93	8667.27
2829.25	8681.03
2830.57	8679.14
2831.9	8691.25
2833.22	8732.15
2834.54	8762.8
2835.86	8821.65
2837.19	8871.73
2838.51	8954.11
2839.83	9052.49
2841.15	9149.52
2842.47	9301.58
2843.79	9478.65
2845.11	9669.37
2846.43	9870.02
2847.75	10038.7
2849.07	10157.9
2850.39	10237.6
2851.71	10257.9
2853.03	10264.7
2854.35	10202.2
2855.66	10135.7
2856.98	10079.1
2858.3	10010.9
2859.62	9980.16
2860.94	9928.31
2862.25	9863.32
2863.57	9854.42
2864.89	9848.1
2866.2	9781.57
2867.52	9844.46
2868.84	9868.82
2870.15	9880.73
2871.47	9874.29
2872.78	9941.5
2874.1	9980.32
2875.41	9999.46
2876.73	10034.8
2878.04	10056.7
2879.36	10048
2880.67	10090.5
2881.98	10073.7
2883.3	10115.8
2884.61	10196.9
2885.92	10167.1
2887.24	10211.2
2888.55	10252.3
2889.86	10243.9
2891.18	10238.8
2892.49	10268.7
2893.8	10268.1
2895.11	10227
2896.42	10254.9
2897.73	10236.9
2899.04	10214
2900.35	10231
2901.67	10217
2902.97	10173.9
2904.29	10179.4
2905.59	10183.5
2906.9	10178.9
2908.21	10134.1
2909.52	10164.9
2910.83	10158.7
2912.14	10110
2913.45	10098.6
2914.76	10121.8
2916.06	10127.2
2917.37	10060.7
2918.68	10103.1
2919.99	10060.5
2921.29	10068.3
2922.6	10041.5
2923.91	10054
2925.21	10091.7
2926.52	10070.6
2927.82	10106.9
2929.13	10072.2
2930.44	10084.9
2931.74	10089
2933.05	10058.4
2934.35	10006.4
2935.65	9966.34
2936.96	9941.35
2938.26	9853.85
2939.57	9831.28
2940.87	9768.96
2942.17	9624.75
2943.48	9517.1
2944.78	9428.55
2946.08	9356.32
2947.38	9264.89
2948.69	9198.14
2949.99	9173.69
2951.29	9140.13
2952.59	9077.58
2953.89	9091.29
2955.19	9016.95
2956.49	9035.48
2957.8	9001.52
2959.1	8988.08
2960.4	8959.45
2961.7	8949.02
2962.99	8893.54
2964.29	8849.54
2965.59	8802.53
2966.89	8766.67
2968.19	8756.04
2969.49	8700.1
2970.79	8636.95
2972.09	8643.22
2973.38	8578.05
2974.68	8569.1
2975.98	8496.57
2977.28	8480.19
2978.57	8488.62
2979.87	8441.58
2981.17	8403.14
2982.46	8392.32
2983.76	8387.48
2985.05	8313.32
2986.35	8349.39
2987.65	8310.8
2988.94	8264.79
2990.24	8262.38
2991.53	8261.57
2992.82	8243.73
2994.12	8208.5
2995.41	8209.74
2996.71	8190
2998	8152.63
2999.29	8117.35
3000.59	8145.12
3001.88	8137.81
3003.17	8140.79
3004.47	8119.84
3005.76	8090.13
3007.05	8078.27
3008.34	8055.39
3009.63	8064.99
3010.92	8035.22
3012.21	8011.94
3013.5	8016.42
3014.8	7996.41
3016.09	8003.79
3017.38	7970.11
3018.67	7980.77
3019.96	7947.36
3021.25	7960.82
3022.54	7918.51
3023.82	7872.94
3025.11	7950.3
3026.4	7887.03
3027.69	7885.09
3028.98	7867.28
3030.27	7852.41
3031.55	7840.23
3032.84	7831.62
3034.13	7862.73
3035.42	7826.94
3036.7	7833.54
3037.99	7838.51
3039.28	7803.98
3040.56	7843.94
3041.85	7807.48
3043.13	7845.02
3044.42	7818.73
3045.7	7856.66
3046.99	7850.02
3048.27	7822.67
3049.56	7847.34
3050.84	7797.81
3052.13	7859.55
3053.41	7837.87
3054.69	7859.79
3055.98	7901.71
3057.26	7871.62
3058.54	7850.06
3059.83	7846.1
3061.11	7882.14
3062.39	7856.69
3063.67	7892.66
3064.95	7836.73
3066.24	7868.28
3067.52	7872.24
3068.8	7822.57
3070.08	7839.47
3071.36	7889.18
3072.64	7848.06
3073.92	7865.88
3075.2	7863.24
3076.48	7854.21
3077.76	7856.78
3079.04	7846.66
3080.32	7874.15
3081.6	7865.6
3082.88	7848.65
3084.16	7837.81
3085.44	7824.89
3086.71	7847.35
3087.99	7863.45
3089.27	7885.31
3090.55	7856.42
3091.82	7861.6
3093.1	7894.64
3094.38	7875.35
3095.65	7861.82
3096.93	7870.61
3098.21	7884.15
3099.48	7914.56
3100.76	7880.24
3102.03	7873.69
3103.31	7885.09
3104.58	7941.33
3105.86	7927.13
3107.13	7918.73
3108.41	7909.5
3109.68	7990.76
3110.96	7965.87
3112.23	7958.54
3113.5	7962.29
3114.78	8002.48
3116.05	7989.71
3117.32	7978.74
3118.59	7993.56
3119.87	8026.45
3121.14	8040.04
3122.41	8021.97
3123.68	8004.11
3124.95	8026.91
3126.23	8043.46
3127.5	8086.68
3128.77	8098.89
3130.04	8093.25
3131.31	8096.03
3132.58	8118.59
3133.85	8126.55
3135.12	8122.21
3136.39	8135.51
3137.66	8173.5
3138.93	8124.1
3140.2	8141.89
3141.46	8148.11
3142.73	8193.96
3144	8195.54
3145.27	8201.81
3146.54	8194.87
3147.8	8231.01
3149.07	8258.35
3150.34	8240.24
3151.6	8310.07
3152.87	8251.84
3154.14	8267.76
3155.4	8295.81
3156.67	8360.35
3157.94	8292.07
3159.2	8304.79
3160.47	8322
3161.73	8350.18
3163	8342.92
3164.26	8337.63
3165.53	8298.28
3166.79	8345.47
3168.05	8351.38
3169.32	8339.2
3170.58	8351.85
3171.84	8358.31
3173.11	8337.35
3174.37	8333.64
3175.63	8311.8
3176.9	8319.96
3178.16	8316.16
3179.42	8330
3180.68	8355.19
3181.94	8372.79
3183.21	8317.99
3184.47	8317.53
3185.73	8328.84
3186.99	8309.02
3188.25	8339.4
3189.51	8337.28
3190.77	8280.72
3192.03	8287.09
3193.29	8291.95
3194.55	8268.96
3195.81	8258.47
3197.07	8220.27
3198.33	8235.35
3199.58	8286.77
3200.84	8266.13
3202.1	8280.83
3203.36	8254.25
3204.62	8290.69
3205.87	8256.22
3207.13	8217.66
3208.39	8229.45
3209.65	8215.26
3210.9	8230.46
3212.16	8220.46
3213.41	8195.98
3214.67	8191.78
3215.93	8215.89
3217.18	8178.9
3218.44	8175.29
3219.69	8162.56
3220.95	8162.31
3222.2	8160.07
3223.46	8154.79
3224.71	8149.05
3225.97	8169.45
3227.22	8158.06
3228.47	8135.77
3229.73	8121.1
3230.98	8123.4
3232.23	8146.13
3233.48	8110.75
3234.74	8085.4
3235.99	8110.37
3237.24	8085.05
3238.49	8047.91
3239.75	8059.78
3241	8025.18
3242.25	8055
3243.5	8055.71
3244.75	8019.69
3246	8003.02
3247.25	8000.58
3248.5	7982.72
3249.75	8004.66
3251	7957.69
3252.25	7974.06
3253.5	7953.17
3254.75	7943.62
3256	7941.96
3257.25	7912.72
3258.49	7909.22
3259.74	7862.4
3260.99	7870.53
3262.24	7858.99
3263.49	7847.39
3264.73	7863.62
3265.98	7863.19
3267.23	7842.18
3268.47	7837.08
3269.72	7835.58
3270.97	7802.89
3272.21	7816.14
3273.46	7812.09
3274.7	7798.2
3275.95	7753.57
3277.2	7766.11
3278.44	7782.48
3279.69	7747.97
3280.93	7744.83
3282.17	7715.09
3283.42	7730.58
3284.66	7721.57
3285.91	7715.19
3287.15	7684.74
3288.39	7712.88
3289.64	7663.61
3290.88	7664.03
3292.12	7665.09
3292.31	7660.31
3293.56	7651.92
3294.8	7640.25
3296.05	7624.47
3297.3	7605.56
3298.55	7625.2
3299.79	7631.56
3301.04	7601.13
3302.29	7623.31
3303.54	7601.6
3304.78	7570.45
3306.03	7589.54
3307.27	7582.16
3308.52	7593.53
3309.76	7606.75
3311.01	7564
3312.26	7580.46
3313.5	7540.42
3314.75	7539.41
3315.99	7526.84
3317.23	7503.51
3318.48	7529.98
3319.72	7573.02
3320.97	7518.6
3322.21	7505.02
3323.45	7521.46
3324.7	7498.04
3325.94	7507.48
3327.18	7504.3
3328.42	7460.47
3329.67	7510.34
3330.91	7451.27
3332.15	7468.38
3333.39	7480.36
3334.63	7493.85
3335.87	7495.4
3337.12	7464.65
3338.36	7454.84
3339.6	7404.8
3340.84	7407.27
3342.08	7389.03
3343.32	7414.4
3344.56	7407.9
3345.8	7411.37
3347.04	7402.87
3348.27	7358.24
3349.51	7368.97
3350.75	7368.73
3351.99	7417.08
3353.23	7381.41
3354.47	7350.51
3355.7	7383.02
3356.94	7333.61
3358.18	7364.7
3359.42	7311.29
3360.65	7360.6
3361.89	7319
3363.13	7288.31
3364.36	7332.59
3365.6	7344.28
3366.83	7316.48
3368.07	7308.15
3369.31	7334.79
3370.54	7318.43
3371.78	7255.17
3373.01	7300.18
3374.25	7291.81
3375.48	7312.41
3376.71	7287.33
3377.95	7304.08
3379.18	7277.68
3380.42	7264.23
3381.65	7245.18
3382.88	7251.68
3384.12	7250.53
3385.35	7255.48
3386.58	7214.91
3387.81	7230.55
3389.04	7208
3390.28	7211.17
3391.51	7198.02
3392.74	7207.04
3393.97	7192.47
3395.2	7190.08
3396.43	7205.31
3397.67	7187.24
3398.9	7205.32
3400.13	7178.58
3401.36	7163.2
3402.58	7165.8
3403.82	7131.96
3405.05	7191.58
3406.27	7110.62
3407.5	7158.57
3408.73	7152.68
3409.96	7109.68
3411.19	7106
3412.42	7163.62
3413.64	7101.2
3414.87	7097.54
3416.1	7098.09
3417.33	7082.89
3418.55	7049.02
3419.78	7067.51
3421.01	7090.88
3422.23	7042.02
3423.46	7037.32
3424.69	7039.68
3425.91	7037.48
3427.14	7033.35
3428.36	6994.79
3429.59	6999.94
3430.81	7005.55
3432.04	6984.31
3433.26	6946.32
3434.49	6938.09
3435.71	6955.87
3436.94	6933.06
3438.16	6910.3
3439.39	6915.69
3440.61	6887.22
3441.83	6847.35
3443.05	6889.17
3444.28	6863.65
3445.5	6810.38
3446.72	6843.74
3447.95	6810.43
3449.17	6797.31
3450.39	6804.75
3451.61	6794.7
3452.83	6770.9
3454.05	6744.5
3455.27	6728.33
3456.5	6771.53
3457.71	6718.58
3458.94	6693.32
3460.16	6687.26
3461.38	6654.13
3462.59	6672.94
3463.81	6628.48
3465.03	6638.83
3466.25	6602.97
3467.47	6602.19
3468.69	6567.54
3469.91	6582.68
3471.13	6551.12
3472.35	6526.07
3473.56	6513.41
3474.78	6488.09
3476	6477.96
3477.22	6444.39
3478.43	6458.52
3479.65	6424.35
3480.87	6410.25
3482.08	6376.35
3483.3	6373.95
3484.52	6383.34
3485.73	6387.75
3486.95	6335.3
3488.16	6319.35
3489.38	6285.55
3490.59	6290.19
3491.81	6252.65
3493.02	6243.72
3494.24	6214.28
3495.45	6222.24
3496.67	6195.27
3497.88	6162.89
3499.09	6127.95
