#Acq. time (s)=	10
#Accumulations=	10
#Range (cm-¹)=	400...3500
#Windows=	3
#Auto scanning=	Off
#Autofocus=	Off
#AutoExposure=	Off
#Spike filter=	Multiple accum.
#Delay time (s)=	0
#Binning=	1
#Readout mode=	Signal
#DeNoise=	Off
#ICS correction=	On
#Dark correction=	Off
#Inst. Process=	Off
#Detector Gain=	Best Dynamic Range
#Detector ADC=	45 kHz       
#Detector temperature (°C)=	-60.1
#Instrument=	LabRAM HR Evol
#Detector=	Syncerity OE
#Objective=	x50_VIS_LWD
#Grating=	600 (500nm)
#ND Filter=	50%
#Laser=	532nm_Edge
#Hole=	199.981
#Range=	Visible
#E-Cal_Neon=	0
#StageXY=	75x50mm Scan+
#StageZ=	Z motor
#X (µm)=	0
#Y (µm)=	0
#Z (µm)=	855.9
#Spectral res.(cm-¹)=	12.8
#Full time(mm:ss)=	5:19
#AC=	Calibrated 2025-06-30 10:26
#Project=	
#Sample=	
#Site=	
#Title=	D_99
#Remark=	
#Date=	30.06.2025 13:50 (India Standard Time)
#Acquired=	30.06.2025 13:50:43 (India Standard Time)
#AxisType[0]=Intens
#AxisUnit[0]=Cnt
#AxisType[1]=Spectr
#AxisUnit[1]=1/cm
400.17	20917.1
401.945	20779.8
403.717	20710.4
405.491	20799.8
407.263	20786.7
409.036	20795.8
410.807	20821.6
412.58	20771.6
414.35	20753.3
416.122	20810.9
417.892	20846.9
419.663	20797.1
421.432	20876.2
423.203	20790.3
424.971	20805.3
426.741	20842.3
428.509	20828.4
430.276	20760.9
432.045	20805
433.812	20883
435.58	20830.3
437.346	20790.8
439.111	20852.5
440.879	20771.4
442.643	20816.4
444.408	20779.7
446.174	20753.3
447.938	20795.7
449.701	20704.5
451.467	20746.3
453.229	20723.9
454.992	20697
456.756	20729.9
458.518	20681.2
460.279	20709.2
462.043	20596.1
463.803	20669.9
465.564	20602.4
467.326	20585.9
469.086	20640.9
470.845	20599
472.604	20659.9
474.365	20697.8
476.123	20655.6
477.882	20643.4
479.639	20573.3
481.399	20646.9
483.156	20593.8
484.913	20591.9
486.669	20628.1
488.425	20631.1
490.183	20617.4
491.938	20595.1
493.693	20554
495.448	20609.9
497.202	20661.1
498.956	20670.4
500.712	20630.3
502.465	20689.7
504.218	20648.7
505.971	20718.6
507.723	20697.7
509.475	20706.1
511.227	20662.8
512.981	20736.1
514.732	20714.1
516.482	20703.9
518.233	20673.1
519.983	20695.6
521.732	20677.7
523.482	20637
525.231	20594.9
526.979	20579.7
528.728	20561.6
530.476	20603
532.223	20589.9
533.971	20540.7
535.718	20540
537.464	20537.7
539.211	20564.3
540.956	20537.9
542.702	20435
544.447	20464.8
546.192	20473.4
547.937	20461.2
549.681	20419.1
551.425	20504
553.169	20417.4
554.912	20445.5
556.655	20481.6
558.398	20462
560.14	20447.6
561.882	20459.7
563.624	20526.3
565.365	20417
567.106	20440.9
568.847	20488.3
570.585	20435.2
572.325	20479.1
574.065	20458.5
575.804	20482.2
577.543	20512.8
579.282	20454.1
581.02	20498.9
582.756	20426.1
584.494	20563.7
586.231	20544.5
587.968	20492.7
589.705	20467.3
591.441	20423.5
593.175	20440
594.911	20490.8
596.646	20528.2
598.381	20504.4
600.116	20436.2
601.848	20480
603.582	20471.3
605.316	20508.3
607.049	20481.9
608.78	20394.4
610.513	20434
612.245	20415.8
613.977	20404.3
615.707	20438.6
617.438	20358.7
619.17	20382.8
620.898	20376.8
622.629	20336.9
624.359	20285.5
626.086	20235.4
627.816	20202.5
629.545	20200
631.272	20176
633	20256.6
634.728	20202.6
636.454	20177.7
638.181	20142.3
639.908	20163.8
641.633	20222.8
643.36	20181
645.084	20088.5
646.81	20119.9
648.535	20064.8
650.258	20068.1
651.983	20117.5
653.705	20094.2
655.43	20080.4
657.153	20076.8
658.875	20137.3
660.598	20036
662.319	20017.5
664.041	20064.6
665.762	20061.7
667.483	20082
669.203	20122.1
670.924	20090.9
672.643	20033.4
674.364	20048.6
676.082	19991.5
677.802	20062.7
679.519	20014.9
681.238	20058.4
682.955	20041.4
684.674	20137.1
686.39	20080.1
688.106	20059
689.824	20055.1
691.539	20110
693.256	20088
694.971	20090.8
696.685	20081
698.401	20107.7
700.115	20116.6
701.83	20062
703.543	20120.2
705.256	20085.3
706.97	20042.9
708.682	20025.3
710.394	19971.5
712.107	19964
713.818	19969.3
715.529	19969.1
717.241	19963.7
718.952	20004.3
720.661	20019.3
722.373	19952.4
724.082	19993.9
725.791	20007.6
727.501	19886.9
729.209	19898.4
730.917	19871
732.625	19869
734.334	19891.7
736.041	19881.8
737.747	19926.8
739.453	19847.3
741.161	19866.2
742.867	19881.7
744.572	19844.5
746.277	19784.3
747.982	19855.4
749.688	19841.7
751.392	19837.3
753.096	19797.4
754.799	19886.7
756.502	19890.8
758.205	19941.7
759.909	19865.1
761.611	19929.7
763.313	19917
765.014	19888.2
766.715	19864.6
768.416	19969
770.116	19938.1
771.816	19858.5
773.516	19868.9
775.218	19879
776.917	20003.9
778.616	19947.1
780.314	19965
782.012	19928.4
783.71	19920
785.408	19933.9
787.105	19908.8
788.802	19984.6
790.498	19929.7
792.195	19873.2
793.891	19810.8
795.586	19867.9
797.281	19906.4
798.977	19911.3
800.671	19924.3
802.365	19888.2
804.06	19860.5
805.753	19867.2
807.447	19864.4
809.14	19839.6
810.832	19831.6
812.525	19824.9
814.217	19769.4
815.907	19808.3
817.598	19813.8
819.289	19752
820.98	19797.6
822.671	19905.9
824.361	19918.9
826.051	19896.6
827.74	19922.7
829.43	19874.4
831.117	19865.2
832.805	19882.3
834.494	19818.8
836.182	19877
837.869	19890.4
839.557	19864.8
841.242	19877.8
842.928	19933
844.615	19887.3
846.301	19942.7
847.987	19956.1
849.67	19918.3
851.355	19944.6
853.04	19939.6
854.724	19915.8
856.407	19990.9
858.091	19963.2
859.774	20044.5
861.457	19992.1
863.138	19973.8
864.821	19970.9
866.503	19957.1
868.183	19975.8
869.865	19951
871.546	19992
873.225	19993.8
874.906	20006.8
876.586	19946.4
878.264	19989.3
879.944	19931.1
881.624	19909.9
883.301	19835.4
884.98	19840
886.658	19849
888.334	19902.4
890.012	19820.4
891.688	19879.5
893.365	19868
895.042	19828.8
896.717	19767
898.393	19783.6
900.067	19650.9
901.743	19624.1
903.416	19673.6
905.091	19563.9
906.766	19576.5
908.438	19576
910.112	19489.9
911.784	19533.7
913.458	19539.3
915.129	19497.1
916.802	19515
918.472	19500.2
920.145	19428.8
921.815	19388.4
923.484	19441.5
925.156	19427.4
926.825	19337.7
928.495	19383.3
930.164	19349.6
931.834	19264.7
933.501	19243.4
935.171	19309.1
936.838	19195.3
938.505	19333.1
940.173	19338.3
941.84	19324
943.505	19329.2
945.173	19273.9
946.838	19314.7
948.505	19271.1
950.17	19286.5
951.834	19328.9
953.5	19245.9
955.164	19244.1
956.827	19264
958.492	19341.1
960.155	19311
961.818	19346.5
963.48	19377.8
965.144	19351.5
966.805	19283.1
968.467	19307.2
970.128	19274.5
971.79	19242.2
973.45	19254.2
975.11	19252.7
976.77	19146.5
978.432	19188.9
980.091	19242.3
981.749	19215.9
983.408	19245.1
985.068	19225.2
986.726	19303.6
988.383	19291.5
990.041	19325.9
991.698	19310.3
993.354	19358.4
995.012	19390.7
996.668	19416.6
998.324	19559
999.979	19684.4
1001.63	19730.6
1003.29	19876.6
1004.94	19792.9
1006.6	19768.8
1008.25	19691.7
1009.91	19470.7
1011.56	19533.4
1013.21	19423
1014.87	19397.6
1016.52	19403.2
1018.17	19308.9
1019.82	19336.3
1021.47	19319
1023.12	19257.9
1024.78	19235.8
1026.43	19192.8
1028.08	19101.9
1029.73	19170.6
1031.38	19140.4
1033.02	19107.2
1034.67	19093
1036.32	19113.6
1037.97	19039.4
1039.62	19041.7
1041.27	19018.8
1042.91	19034.4
1044.56	18992.6
1046.21	18986.2
1047.85	19024.9
1049.5	18983
1051.14	19025.6
1052.79	19032.4
1054.43	19083.3
1056.08	19057.6
1057.72	19097.8
1059.37	19084.6
1061.01	19148
1062.65	19229.7
1064.3	19251.5
1065.94	19167.7
1067.58	19148.6
1069.23	19104
1070.87	19159.1
1072.51	19257.7
1074.15	19158.5
1075.79	19147.2
1077.43	19188.4
1079.07	19290.2
1080.71	19196.3
1082.35	19201.2
1083.99	19168
1085.63	19124.7
1087.27	19101
1088.91	19072.8
1090.55	19098.1
1092.18	19042
1093.82	18978.1
1095.46	18844.8
1097.1	18843.3
1098.73	18753.7
1100.37	18714
1102	18729.2
1103.64	18667
1105.27	18647.1
1106.91	18620.6
1108.54	18660.9
1110.18	18644
1111.81	18663.2
1113.44	18729
1115.08	18725.6
1116.71	18850.3
1118.34	18815
1119.98	18827
1121.61	18860.1
1123.24	18855.2
1124.87	18857.3
1126.5	18787.9
1128.13	18798.3
1129.76	18743.3
1131.39	18678.3
1133.02	18604.1
1134.65	18573.3
1136.28	18543.6
1137.91	18551.2
1139.54	18569.4
1141.17	18645.7
1142.8	18684.5
1144.42	18769.2
1146.05	18877.9
1147.68	18979.9
1149.3	19225.7
1150.93	19484
1152.56	19703.2
1154.18	20038.1
1155.81	20173.9
1157.43	20180.7
1159.06	19951.1
1160.68	19684.4
1162.31	19261.1
1163.93	18972.6
1165.55	18721.3
1167.18	18557.2
1168.8	18512.6
1170.42	18468.2
1172.04	18386.4
1173.67	18356.6
1175.29	18302.2
1176.91	18250.1
1178.53	18287.2
1180.15	18219
1181.77	18242.9
1183.39	18286.5
1185.01	18247.1
1186.63	18269.8
1188.25	18272.3
1189.87	18213.9
1191.49	18214.2
1193.11	18236
1194.72	18245.7
1196.34	18236.2
1197.96	18123.3
1199.58	18095.5
1201.19	18143
1202.81	17953.5
1204.43	17983.4
1206.04	17983.3
1207.66	18012
1209.27	18029
1210.88	17972.4
1212.5	17981.9
1214.11	17924
1215.73	17844
1217.34	17833.1
1218.95	17868.5
1220.57	17829
1222.18	17747.4
1223.79	17784.6
1225.4	17773
1227.02	17802.1
1228.63	17826.3
1230.24	17741.9
1231.85	17826.1
1233.46	17793.5
1235.07	17799.8
1236.68	17805
1238.29	17781.4
1239.9	17750.1
1241.51	17825.5
1243.12	17802.3
1244.72	17887.7
1246.33	17916.1
1247.94	17896.5
1249.55	17909.6
1251.15	17906.3
1252.76	17862.1
1254.37	17876.6
1255.97	17871.4
1257.58	17944.1
1259.19	17874.8
1260.79	17938.3
1262.39	17969.8
1264	17998.1
1265.6	17984
1267.21	17967.8
1268.81	17937
1270.41	17912
1272.02	17873
1273.62	17833.3
1275.22	17856.4
1276.82	17854.3
1278.43	17863
1280.03	17743.1
1281.63	17781.8
1283.23	17748.8
1284.83	17790.2
1286.43	17678.4
1288.03	17780.9
1289.63	17741
1291.23	17800
1292.83	17907.7
1294.43	17917.8
1296.03	18019.1
1297.62	18106
1299.22	18229.6
1300.82	18268.3
1302.42	18271.2
1304.01	18253.9
1305.61	18186.8
1307.21	18138.2
1308.8	18042.1
1310.4	17988.4
1311.99	17933.9
1313.59	17827.5
1315.18	17700.6
1316.78	17692.7
1318.37	17553.7
1319.96	17538.3
1321.56	17457.5
1323.15	17477.2
1324.74	17407
1326.34	17410.5
1327.93	17343.2
1329.52	17352.2
1331.11	17355.6
1332.7	17268.3
1334.3	17257.1
1335.89	17269.8
1337.48	17262.1
1339.07	17273.4
1340.66	17266.1
1342.25	17192.1
1343.84	17184.7
1345.42	17173.3
1347.01	17162.4
1348.6	17169.3
1350.19	17157.8
1351.78	17135.9
1353.37	17120.5
1354.95	17074
1356.54	16984
1358.13	17039.3
1359.71	16954.4
1361.3	16957.2
1362.88	16962.4
1364.47	16949.7
1366.05	16952.4
1367.64	16920.6
1369.22	16921.2
1370.81	16853.6
1372.39	16872.9
1373.97	16818.7
1375.56	16699.5
1377.14	16768.3
1378.72	16736.7
1380.31	16656
1381.89	16642.7
1383.47	16595.6
1385.05	16600.8
1386.63	16594.2
1388.21	16599.2
1389.79	16653.5
1391.37	16634.9
1392.95	16664.3
1394.53	16593.4
1396.11	16620.3
1397.69	16507.8
1399.27	16532.4
1400.85	16535.9
1402.42	16553
1404	16477.9
1405.58	16503.3
1407.16	16514.3
1408.73	16535.4
1410.31	16500.7
1411.89	16555.5
1413.46	16580.9
1415.04	16640.3
1416.61	16619
1418.19	16647.2
1419.76	16638.7
1421.34	16629
1422.91	16705.9
1424.49	16751.3
1426.06	16757.1
1427.63	16909.4
1429.21	17076.3
1430.78	17240
1432.35	17485.4
1433.92	17641.3
1435.49	17810.9
1437.07	17949.9
1438.64	18076.1
1440.21	18112.9
1441.78	18037.9
1443.35	17938.6
1444.92	17891.8
1446.49	17915.3
1448.06	17806.2
1449.63	17708.5
1451.2	17679.2
1452.76	17656.5
1454.33	17539.6
1455.9	17543.3
1457.47	17471.7
1459.03	17365
1460.6	17318.6
1462.17	17184.6
1463.74	17092.4
1465.3	16946.2
1466.87	16854.7
1468.43	16820.6
1470	16626.3
1471.56	16512.1
1473.13	16427.5
1474.69	16275.3
1476.26	16290.8
1477.82	16186.1
1479.38	16161.2
1480.94	16083
1482.51	16070.9
1484.07	16036.5
1485.63	16006.5
1487.2	15952.5
1488.76	15937.8
1490.32	15985.2
1491.88	15988.1
1493.44	15963.9
1495	16032.8
1496.56	16080.1
1498.12	16049.7
1499.68	16077.5
1501.24	16052.9
1502.8	16138.1
1504.36	16225.4
1505.91	16311.1
1507.47	16277.3
1509.03	16476.9
1510.59	16629.2
1512.14	16757.5
1513.7	16942.3
1515.26	17038
1516.81	17269.3
1518.37	17375.1
1519.93	17521.2
1521.48	17509.4
1523.04	17487.5
1524.59	17417.8
1526.15	17308.5
1527.7	17066.3
1529.25	16815.1
1530.81	16561.3
1532.36	16302.3
1533.91	16133.8
1535.47	15904.1
1537.02	15758.2
1538.57	15679.4
1540.12	15646.5
1541.67	15607.8
1543.23	15544
1544.78	15463.3
1546.33	15415.5
1547.88	15411
1549.43	15394.2
1550.98	15355.7
1552.53	15354.6
1554.08	15362.5
1555.63	15408.3
1557.18	15365.5
1558.72	15317.6
1560.27	15252.9
1561.82	15275.8
1563.37	15267
1564.91	15210.6
1566.46	15294.1
1568.01	15259.3
1569.55	15244.1
1571.1	15302.2
1572.64	15213.2
1574.19	15208.9
1575.74	15167.1
1577.28	15193.1
1578.83	15155.2
1580.37	15166.9
1581.91	15150.1
1583.46	15177.2
1585	15166.7
1586.54	15157.6
1588.09	15127.8
1589.63	15115.8
1591.17	15111.1
1592.71	15124.6
1594.25	15102
1595.79	15096.3
1597.34	15116.9
1598.88	15086.1
1600.42	15128.3
1601.96	15071.3
1603.5	15099.3
1605.04	15054.3
1606.58	15069.6
1608.12	15022.2
1609.65	14974.8
1611.19	14962.5
1612.73	14903.3
1614.27	14938.6
1615.8	14924.3
1617.34	14922.6
1618.88	14911.1
1620.42	14912
1621.95	14852.4
1623.49	14890.3
1625.03	14849
1626.56	14845.1
1628.1	14862.4
1629.63	14833.6
1631.17	14894.2
1632.7	14892.2
1634.23	14834
1635.77	14928.5
1637.3	14920.1
1638.83	14896.1
1640.37	14956.8
1641.9	14903.6
1643.43	14926.9
1644.96	14963.5
1646.5	15057.2
1648.03	15116.4
1649.56	15233.9
1651.09	15360.7
1652.62	15454.6
1654.15	15424.2
1655.68	15380.7
1657.21	15292.3
1658.74	15169.6
1660.27	15079.3
1661.8	14966.2
1663.32	14908.3
1664.85	14841.7
1666.38	14804.8
1667.91	14780.5
1669.44	14729.1
1670.96	14741.5
1672.49	14707.8
1674.02	14645.7
1675.54	14599.2
1677.07	14605.1
1678.59	14485
1680.12	14432
1681.65	14404.6
1683.17	14393.1
1684.69	14386.3
1686.22	14319.3
1687.74	14289.9
1689.27	14260.9
1690.79	14217.2
1692.31	14231.9
1693.84	14203.1
1695.36	14175.9
1696.88	14095.3
1698.4	14134.8
1699.92	14097.9
1701.45	14064.5
1702.97	14028.9
1704.49	14003.7
1706.01	13976.5
1707.53	13984.3
1709.05	13986.9
1710.57	13942.6
1712.09	13968.6
1713.61	13937.4
1715.13	13897.4
1716.65	13866.6
1718.16	13891.1
1719.68	13885.2
1721.2	13859.7
1722.72	13856.7
1724.23	13841.4
1725.75	13912.4
1727.27	13811.2
1728.78	13813.8
1730.3	13883.6
1731.82	13848.2
1733.33	13834.4
1734.84	13896.5
1736.36	13900.3
1737.87	13886.4
1739.39	13881.4
1740.9	13930.6
1742.42	13951.3
1743.93	13936.7
1745.44	13905.6
1746.96	13974.5
1748.47	13898.3
1749.98	13899.6
1751.49	13827.8
1753	13825.7
1754.51	13769.9
1756.03	13702.6
1757.54	13648.9
1759.05	13656.1
1760.56	13560.3
1762.07	13571.5
1763.58	13472.7
1765.09	13474.7
1766.6	13464.7
1768.11	13428.3
1769.61	13442.3
1771.12	13467.8
1772.63	13420.5
1774.14	13445.1
1775.65	13379.4
1777.15	13392.3
1778.66	13431.8
1780.17	13393.4
1781.67	13343.4
1783.18	13299.6
1784.68	13343.2
1786.19	13338.7
1787.7	13332
1789.2	13350.5
1790.71	13288.6
1792.21	13238.7
1793.71	13324.4
1795.22	13283.8
1796.72	13265.7
1798.22	13235.9
1799.73	13180.3
1801.23	13189.6
1802.73	13144.8
1804.23	13161.7
1805.74	13139.9
1807.24	13204
1808.74	13154.7
1810.24	13168.9
1811.74	13134.4
1813.24	13110.6
1814.74	13141.6
1816.24	13096.5
1817.74	13092.1
1819.24	13089.3
1820.74	13049.6
1822.24	13025.6
1823.74	13073
1825.23	13048.1
1826.73	13050.6
1828.23	13004.2
1829.73	13078.7
1831.22	13001.9
1832.72	13010.5
1834.22	12992.6
1835.71	12946.4
1837.21	12975.8
1838.71	12947.3
1840.2	12951.7
1841.7	12966.4
1843.19	12960.6
1844.68	12938
1846.18	12973.1
1847.67	12926.1
1849.17	12882.8
1850.66	12875.9
1852.15	12835.3
1853.65	12864.4
1855.14	12812.8
1856.63	12843.6
1858.12	12815.3
1859.62	12813.5
1861.11	12776.6
1862.6	12749.5
1864.09	12748.9
1865.58	12701.8
1867.07	12747.4
1868.56	12724.7
1870.05	12744.4
1871.54	12680.4
1873.03	12676.6
1874.52	12696.1
1876.01	12652.6
1877.49	12715.8
1878.98	12688.7
1880.47	12634.8
1881.96	12639
1883.45	12655.7
1884.93	12576.4
1886.42	12632.6
1887.91	12559.6
1889.39	12571.1
1890.88	12563.3
1892.36	12541.5
1893.85	12503.5
1895.34	12529.4
1896.82	12492.5
1898.3	12494.4
1899.79	12453
1901.27	12423.4
1902.76	12383.6
1904.24	12346.5
1905.72	12367.9
1907.2	12302.5
1908.69	12334
1910.17	12255.5
1911.65	12253.6
1913.13	12235.7
1914.62	12212.9
1916.1	12184.8
1917.58	12121.1
1919.06	12087.9
1920.54	12092.8
1922.02	12045.9
1923.5	12050.1
1924.98	11993
1926.46	11988
1927.94	12035.8
1929.42	11966.6
1930.89	11951.1
1932.37	11915.9
1933.85	11920
1935.33	11853.4
1936.81	11799.5
1938.28	11796.7
1939.76	11783.9
1941.24	11736.3
1942.71	11739.3
1944.19	11727.8
1945.66	11712.8
1947.14	11697.6
1948.61	11661.8
1950.09	11633.7
1951.57	11610.6
1953.04	11586.1
1954.51	11547.3
1955.99	11471.5
1957.46	11460.1
1958.93	11436.4
1960.41	11425.9
1961.88	11433.5
1963.35	11413
1964.82	11375.9
1966.3	11346.3
1967.77	11317.3
1969.24	11322.2
1970.71	11305.2
1972.18	11253.5
1973.65	11237.7
1975.12	11246.7
1976.59	11236.2
1978.06	11209.4
1979.53	11187.6
1981	11180.4
1982.47	11118.4
1983.94	11132.3
1985.41	11110.3
1986.87	11093.2
1988.34	11053.1
1989.81	11025.9
1991.28	10994.4
1992.74	10996.9
1994.21	10966.7
1995.68	10917.4
1997.14	10901.6
1998.61	10889.8
2000.07	10863.8
2001.54	10833.3
2003.01	10848.7
2004.47	10845.8
2005.94	10809.9
2007.4	10781.3
2008.86	10795
2010.33	10786
2011.79	10741.3
2013.25	10745.6
2014.72	10735.5
2016.18	10702.8
2017.64	10703.3
2019.1	10664.7
2020.57	10657.5
2022.03	10637.7
2023.49	10594.2
2024.95	10572.3
2026.41	10568.8
2027.87	10553.8
2029.33	10541
2030.79	10540.3
2032.25	10518.1
2033.71	10521.1
2035.17	10530.1
2036.63	10512.6
2038.09	10455.6
2039.54	10443.7
2041	10434
2042.46	10428.7
2043.92	10399.7
2045.38	10383.5
2045.86	10380.5
2047.32	10391.8
2048.79	10414.5
2050.25	10403.1
2051.71	10376.2
2053.17	10349.8
2054.64	10375.7
2056.1	10376.1
2057.56	10361
2059.02	10315.1
2060.48	10309.6
2061.94	10301.7
2063.4	10308.1
2064.86	10316.3
2066.32	10321.2
2067.78	10345.6
2069.24	10295.1
2070.7	10281.3
2072.16	10325
2073.62	10249.2
2075.08	10270
2076.54	10293
2077.99	10261.2
2079.45	10256.7
2080.91	10222.5
2082.37	10222.1
2083.82	10222.9
2085.28	10244.1
2086.74	10176.7
2088.19	10209
2089.65	10213.6
2091.1	10210.1
2092.56	10192.5
2094.01	10143.6
2095.47	10150.1
2096.92	10122.6
2098.38	10181.5
2099.83	10132.3
2101.29	10118.2
2102.74	10106.3
2104.19	10116.6
2105.64	10066.6
2107.1	10107.3
2108.55	10059.6
2110	10067.9
2111.45	10031
2112.91	10043.3
2114.36	10054.9
2115.81	10056
2117.26	10021
2118.71	10030.5
2120.16	10031
2121.61	10022.1
2123.06	10034.4
2124.51	10015.8
2125.96	9997.43
2127.4	9929.71
2128.85	9986.25
2130.3	9966.6
2131.75	9949.55
2133.2	9931.57
2134.65	9936.91
2136.09	9925.62
2137.54	9934.18
2138.99	9949.47
2140.43	9949.1
2141.88	9909.16
2143.32	9923.21
2144.77	9896.21
2146.22	9901.06
2147.66	9888.07
2149.11	9887.88
2150.55	9886.38
2152	9899.09
2153.44	9816.67
2154.88	9928.54
2156.33	9866.04
2157.77	9820.86
2159.21	9883.64
2160.66	9821.68
2162.1	9837.41
2163.54	9809.06
2164.98	9878.25
2166.43	9842.76
2167.87	9810.88
2169.31	9850.6
2170.75	9804.82
2172.19	9833.04
2173.63	9796.61
2175.07	9793.1
2176.51	9816.57
2177.95	9774.88
2179.39	9796.99
2180.83	9759.77
2182.27	9795.86
2183.71	9727.6
2185.14	9740.29
2186.58	9717.57
2188.02	9688.67
2189.46	9724.26
2190.9	9698.95
2192.33	9717.93
2193.77	9668.73
2195.21	9716.85
2196.64	9717.91
2198.08	9667.86
2199.51	9665.55
2200.95	9670.46
2202.39	9659.06
2203.82	9639.86
2205.25	9641.82
2206.69	9664.86
2208.12	9630.51
2209.56	9614.21
2210.99	9583.71
2212.42	9606.13
2213.86	9596.72
2215.29	9600.16
2216.72	9544.49
2218.15	9540.77
2219.59	9563.93
2221.02	9526.3
2222.45	9536.92
2223.88	9471.39
2225.31	9442.21
2226.74	9469.13
2228.17	9505.21
2229.6	9494.71
2231.03	9473.69
2232.46	9449.34
2233.89	9435.28
2235.32	9427.67
2236.75	9415.53
2238.18	9407.53
2239.61	9427.19
2241.04	9422.68
2242.46	9457.74
2243.89	9401.41
2245.32	9421.54
2246.75	9324.55
2248.17	9356.93
2249.6	9365.44
2251.03	9364.85
2252.45	9336.05
2253.88	9309.02
2255.31	9317.67
2256.73	9272.03
2258.16	9267.08
2259.58	9291.88
2261	9245.35
2262.43	9248.7
2263.85	9212.44
2265.28	9173.44
2266.7	9190.74
2268.12	9171.14
2269.55	9179.66
2270.97	9162.68
2272.39	9133
2273.81	9131.59
2275.24	9162.92
2276.66	9112.34
2278.08	9135.37
2279.5	9107.01
2280.92	9056.35
2282.34	9077.81
2283.76	9087.02
2285.18	9058.69
2286.6	9040.8
2288.02	9077.25
2289.44	9047.42
2290.86	9006.86
2292.28	8996.68
2293.7	9033.77
2295.12	8995.17
2296.54	9029.97
2297.95	8961.45
2299.37	8944.44
2300.79	8962.63
2302.21	8923.76
2303.62	8917.37
2305.04	8906.86
2306.46	8923.45
2307.87	8883.8
2309.29	8901.17
2310.7	8875.65
2312.12	8865.7
2313.53	8847.6
2314.95	8872.79
2316.36	8814.03
2317.78	8878.36
2319.19	8822.64
2320.61	8850.58
2322.02	8786.04
2323.43	8805.76
2324.85	8796.58
2326.26	8861.32
2327.67	8957.77
2329.08	9027.09
2330.5	9039.53
2331.91	8968.65
2333.32	8810.07
2334.73	8706.99
2336.14	8686.52
2337.55	8703.81
2338.96	8743.28
2340.37	8693.8
2341.78	8659.6
2343.19	8674.56
2344.6	8637.14
2346.01	8639.84
2347.42	8651.68
2348.83	8588.62
2350.24	8627.28
2351.65	8590.7
2353.05	8571.42
2354.46	8560.24
2355.87	8572.8
2357.28	8543.56
2358.68	8526.99
2360.09	8513.15
2361.5	8536.13
2362.9	8487.46
2364.31	8478.33
2365.71	8489.6
2367.12	8490.46
2368.52	8445.57
2369.93	8490.41
2371.33	8468.61
2372.74	8470.53
2374.14	8432.77
2375.55	8432.2
2376.95	8446.16
2378.35	8464.09
2379.76	8432.84
2381.16	8418.83
2382.56	8406.21
2383.96	8401.56
2385.37	8409.27
2386.77	8388.97
2388.17	8379.74
2389.57	8371
2390.97	8358.01
2392.37	8372.84
2393.77	8319.42
2395.17	8303
2396.57	8309.22
2397.97	8354.83
2399.37	8314.79
2400.77	8339.19
2402.17	8312.23
2403.57	8289.2
2404.97	8285.99
2406.37	8225.01
2407.77	8275.07
2409.16	8254.49
2410.56	8242.29
2411.96	8263.17
2413.36	8224.03
2414.75	8219.8
2416.15	8247.46
2417.55	8227.78
2418.94	8206.72
2420.34	8181.18
2421.73	8225.3
2423.13	8192.01
2424.52	8225.65
2425.92	8203.58
2427.31	8163.11
2428.71	8141.1
2430.1	8200.66
2431.5	8210.34
2432.89	8138.08
2434.28	8164.43
2435.68	8118.81
2437.07	8124.89
2438.46	8143.21
2439.85	8108.33
2441.25	8106.75
2442.64	8091.55
2444.03	8055.1
2445.42	8113.15
2446.81	8074.2
2448.2	8070.94
2449.59	8048.15
2450.98	8087.97
2452.37	8069.4
2453.76	8040.8
2455.15	8027.63
2456.54	8064.46
2457.93	8049.93
2459.32	8031.94
2460.71	8034.01
2462.1	8007.13
2463.49	8012.02
2464.87	8027.36
2466.26	8010.65
2467.65	7950.4
2469.04	7983.78
2470.42	7996.35
2471.81	7965.81
2473.2	7967.17
2474.58	7950
2475.97	7953.8
2477.35	7920.56
2478.74	7953.49
2480.12	7915.68
2481.51	7936.31
2482.89	7927.41
2484.28	7877.17
2485.66	7890.68
2487.05	7871.02
2488.43	7895.75
2489.81	7855.72
2491.2	7896.17
2492.58	7869.8
2493.96	7850.35
2495.34	7837.61
2496.73	7820.1
2498.11	7845.07
2499.49	7819.69
2500.87	7838
2502.25	7806.23
2503.63	7831.52
2505.01	7807.52
2506.39	7816.78
2507.77	7773.53
2509.15	7740.51
2510.53	7773.83
2511.91	7771.45
2513.29	7772.35
2514.67	7714.32
2516.05	7791.64
2517.43	7724.82
2518.81	7739.3
2520.19	7756.39
2521.56	7729.73
2522.94	7725.23
2524.32	7708.4
2525.7	7722.75
2527.07	7752.83
2528.45	7721.76
2529.82	7698.94
2531.2	7720.33
2532.58	7723.65
2533.95	7674.65
2535.33	7706.53
2536.7	7685.3
2538.08	7662.43
2539.45	7633.66
2540.82	7682.43
2542.2	7644.02
2543.57	7640.24
2544.95	7658.25
2546.32	7635.64
2547.69	7618.09
2549.07	7576
2550.44	7608.87
2551.81	7579.02
2553.18	7583.25
2554.55	7585.64
2555.93	7560.37
2557.3	7577.2
2558.67	7545.5
2560.04	7560.32
2561.41	7555.35
2562.78	7544.21
2564.15	7527.23
2565.52	7580.15
2566.89	7545.65
2568.26	7503.01
2569.63	7541.41
2571	7502.71
2572.36	7557.59
2573.73	7486.95
2575.1	7467.14
2576.47	7528.91
2577.84	7493.86
2579.2	7464.66
2580.57	7487.52
2581.94	7511.31
2583.31	7523.93
2584.67	7479.91
2586.04	7474.42
2587.4	7503.41
2588.77	7519.17
2590.14	7490.41
2591.5	7499.15
2592.87	7499.05
2594.23	7512.76
2595.6	7501.88
2596.96	7477.74
2598.32	7466.72
2599.69	7453.44
2601.05	7464.48
2602.41	7456.54
2603.78	7471.15
2605.14	7415.13
2606.5	7457.6
2607.86	7443.62
2609.23	7457.28
2610.59	7449.35
2611.95	7457.88
2613.31	7399.76
2614.67	7434.29
2616.03	7386
2617.4	7419.57
2618.75	7368.48
2620.11	7425.99
2621.48	7424.82
2622.83	7414.43
2624.19	7368.58
2625.55	7421.71
2626.91	7389.98
2628.27	7360.33
2629.63	7360.95
2630.99	7381.21
2632.35	7367.09
2633.7	7356.44
2635.06	7336.21
2636.42	7389.5
2637.77	7378.4
2639.13	7398.15
2640.49	7319.04
2641.84	7342.94
2643.2	7348.09
2644.56	7365.35
2645.91	7346.15
2647.27	7304.32
2648.62	7359.28
2649.98	7341.13
2651.33	7307.98
2652.69	7343.26
2654.04	7334.85
2655.4	7314.46
2656.75	7308.05
2658.1	7330.34
2659.45	7272.06
2660.81	7329.72
2662.16	7322.31
2663.51	7339
2664.86	7327.04
2666.22	7329.62
2667.57	7341.54
2668.92	7336.42
2670.27	7335.84
2671.62	7332.69
2672.97	7310.45
2674.32	7331.45
2675.67	7291.91
2677.02	7294.55
2678.37	7315.06
2679.72	7260.26
2681.07	7307.78
2682.42	7285.24
2683.77	7280.17
2685.12	7279.42
2686.47	7268.38
2687.81	7257.08
2689.16	7266.4
2690.51	7242.12
2691.86	7269.34
2693.21	7259.84
2694.55	7249.41
2695.9	7262.39
2697.25	7231.07
2698.59	7202.99
2699.94	7272.81
2701.28	7248.16
2702.63	7280.43
2703.97	7264.94
2705.32	7276.35
2706.66	7265.4
2708.01	7263.72
2709.35	7268.86
2710.7	7317.6
2712.04	7246.58
2713.39	7287.08
2714.73	7269.77
2716.07	7292.89
2717.41	7278.07
2718.76	7297.46
2720.1	7316.18
2721.44	7265.38
2722.78	7285.11
2724.12	7266.96
2725.47	7301
2726.81	7250.55
2728.15	7272.57
2729.49	7259.57
2730.83	7277.73
2732.17	7249.53
2733.51	7258.61
2734.85	7212.73
2736.19	7222.59
2737.53	7183.79
2738.87	7171.55
2740.21	7146.99
2741.55	7142.98
2742.88	7132.31
2744.22	7123.17
2745.56	7117.82
2746.9	7100.78
2748.24	7083.95
2749.57	7106.75
2750.91	7058.87
2752.25	7078.31
2753.58	7029.95
2754.92	7007.12
2756.25	7006.82
2757.59	7014.97
2758.93	7038.39
2760.26	7009.48
2761.6	6996.2
2762.93	7025.01
2764.27	7030.69
2765.6	7004
2766.93	6986.25
2768.27	7003.15
2769.6	7002.69
2770.94	6980.84
2772.27	6970.37
2773.6	6987.46
2774.93	6978.53
2776.27	6959.44
2777.6	6958.97
2778.93	6930.68
2780.26	6935.87
2781.59	6932.83
2782.93	6916.56
2784.26	6922.2
2785.59	6908.23
2786.92	6893.79
2788.25	6920.24
2789.58	6903.07
2790.91	6903.09
2792.24	6879.53
2793.57	6943.03
2794.9	6888.85
2796.23	6913.1
2797.56	6924.2
2798.88	6917.31
2800.21	6888.35
2801.54	6857.25
2802.87	6898.84
2804.2	6898.65
2805.52	6918.44
2806.85	6882.83
2808.18	6895.8
2809.5	6910.08
2810.83	6879.9
2812.16	6896.68
2813.48	6926.88
2814.81	6929.28
2816.13	6918.24
2817.46	6926.18
2818.78	6918.5
2820.11	6957.24
2821.43	6957.19
2822.76	6965.23
2824.08	6991.24
2825.4	7000.13
2826.73	6953.33
2828.05	7052.87
2829.37	7072
2830.7	7099.04
2832.02	7124.22
2833.34	7184.82
2834.66	7255.08
2835.99	7362.41
2837.31	7396.64
2838.63	7497.52
2839.95	7647.65
2841.27	7807.32
2842.59	8058.27
2843.91	8309.86
2845.23	8672.35
2846.55	9053.39
2847.87	9376.94
2849.19	9647.85
2850.51	9882.01
2851.83	9949.53
2853.15	10020.2
2854.47	9969.06
2855.79	9875.59
2857.11	9717.77
2858.43	9625.15
2859.74	9572.84
2861.06	9449.69
2862.38	9384.77
2863.69	9330.92
2865.01	9211.17
2866.33	9164.65
2867.65	9213.23
2868.96	9228.29
2870.28	9296.02
2871.59	9290.36
2872.91	9386.83
2874.22	9449.33
2875.54	9470.5
2876.85	9501.84
2878.17	9490.86
2879.48	9585.93
2880.8	9611.05
2882.11	9637.41
2883.42	9718.41
2884.74	9763.41
2886.05	9827.56
2887.36	9901
2888.68	9924.84
2889.99	9963.42
2891.3	9982.08
2892.61	9960.05
2893.93	9959.86
2895.24	9998.07
2896.55	10002.7
2897.86	9975.75
2899.17	9934.07
2900.48	9993.63
2901.79	9952.01
2903.1	9910.2
2904.41	9914.2
2905.72	9920.93
2907.03	9862.84
2908.34	9864.8
2909.65	9825.36
2910.96	9803.45
2912.27	9809.19
2913.57	9810.03
2914.88	9799.47
2916.19	9779.88
2917.5	9793.75
2918.81	9761.95
2920.11	9749.28
2921.42	9773.03
2922.73	9762.37
2924.03	9792.48
2925.34	9768.47
2926.64	9700.45
2927.95	9730.39
2929.26	9792.83
2930.56	9793.15
2931.87	9763.67
2933.17	9752.54
2934.48	9684.78
2935.78	9719.82
2937.09	9585.74
2938.39	9554.57
2939.69	9431.66
2941	9365.46
2942.3	9181.79
2943.6	9078.34
2944.91	8915.92
2946.21	8762.25
2947.51	8622.22
2948.81	8513.07
2950.12	8419.74
2951.42	8375.22
2952.72	8280.55
2954.02	8273.84
2955.32	8234.65
2956.62	8235.38
2957.92	8152.31
2959.22	8114.65
2960.52	8069.51
2961.82	8106.21
2963.12	8053.45
2964.42	7968.19
2965.72	7922.98
2967.02	7854.13
2968.32	7802.54
2969.62	7758.01
2970.92	7692.69
2972.21	7625.06
2973.51	7586.09
2974.81	7527.89
2976.11	7482.74
2977.4	7422.8
2978.7	7397.44
2980	7368.13
2981.29	7328.82
2982.59	7258.7
2983.89	7249.59
2985.18	7242.36
2986.48	7195.77
2987.77	7150.18
2989.07	7138.75
2990.36	7125.3
2991.66	7095.3
2992.95	7059.59
2994.25	7068.38
2995.54	7065.76
2996.84	7036.55
2998.13	6986.7
2999.42	7009.48
3000.72	6996.41
3002.01	6997.93
3003.3	7015.37
3004.59	7011.69
3005.89	6965.93
3007.18	6972.39
3008.47	6990.77
3009.76	6933.56
3011.05	6914.36
3012.34	6863.33
3013.63	6854.68
3014.93	6870.85
3016.22	6841.32
3017.5	6805.13
3018.8	6764.44
3020.09	6775.82
3021.38	6789.8
3022.67	6744.68
3023.95	6737.95
3025.24	6722.96
3026.53	6730.01
3027.82	6705.11
3029.11	6666.92
3030.4	6702.9
3031.68	6692.79
3032.97	6703.38
3034.26	6666.89
3035.54	6656.86
3036.83	6643.78
3038.12	6640.05
3039.4	6665.89
3040.69	6642.26
3041.98	6675.21
3043.26	6674.55
3044.55	6660.28
3045.83	6678.4
3047.12	6642.54
3048.4	6652.23
3049.69	6685.63
3050.97	6669.78
3052.26	6682.98
3053.54	6684.36
3054.82	6682.39
3056.11	6703.37
3057.39	6708.84
3058.67	6688.29
3059.96	6698.09
3061.24	6709.84
3062.52	6691.06
3063.8	6702.2
3065.09	6700.69
3066.37	6727.25
3067.65	6708.18
3068.93	6703.13
3070.21	6684.99
3071.49	6712.19
3072.77	6715.7
3074.05	6714.22
3075.33	6717.74
3076.61	6694.87
3077.89	6716.94
3079.17	6715.96
3080.45	6715.3
3081.73	6689.19
3083.01	6716.43
3084.29	6706.77
3085.57	6714.72
3086.84	6755.15
3088.12	6721.49
3089.4	6738.37
3090.68	6731.11
3091.95	6720.12
3093.23	6721.17
3094.51	6724.58
3095.79	6707.86
3097.06	6749.93
3098.34	6748.09
3099.61	6787.43
3100.89	6733.91
3102.17	6747.47
3103.44	6757.58
3104.72	6788.51
3105.99	6796.67
3107.27	6798.1
3108.54	6831.19
3109.81	6804.8
3111.09	6833.97
3112.36	6823.81
3113.63	6828.17
3114.91	6871.85
3116.18	6876.44
3117.46	6873.31
3118.73	6859.6
3120	6890.41
3121.27	6886.43
3122.54	6904.34
3123.82	6904.65
3125.09	6897.1
3126.36	6941.51
3127.63	6930.59
3128.9	6977.67
3130.17	6977.49
3131.44	6974.17
3132.71	6986.26
3133.98	7004.49
3135.25	6990.34
3136.52	7014.52
3137.79	7008.33
3139.06	7029.33
3140.33	7014.59
3141.6	7027.51
3142.86	7047.6
3144.13	7071.29
3145.4	7072.44
3146.67	7107.36
3147.94	7099.74
3149.2	7137.62
3150.47	7132.89
3151.74	7159.48
3153	7119.81
3154.27	7140.95
3155.54	7139.55
3156.8	7180.05
3158.07	7183.47
3159.34	7173.25
3160.6	7186.43
3161.86	7166.18
3163.13	7179.61
3164.4	7253.63
3165.66	7242.09
3166.92	7259.22
3168.19	7274.2
3169.45	7271.42
3170.72	7276.7
3171.98	7261.78
3173.24	7284.53
3174.5	7277.64
3175.77	7264.59
3177.03	7294.08
3178.29	7249.97
3179.56	7268.8
3180.82	7293.98
3182.08	7271.93
3183.34	7286.93
3184.6	7292.33
3185.86	7306.2
3187.12	7298.83
3188.38	7302.83
3189.64	7311.48
3190.9	7306.05
3192.16	7306.49
3193.42	7263.91
3194.68	7285.94
3195.94	7305.6
3197.2	7299.77
3198.46	7321.41
3199.72	7302.97
3200.98	7283.68
3202.24	7318.62
3203.49	7334.58
3204.75	7315.27
3206.01	7333.34
3207.27	7307.34
3208.52	7301.47
3209.78	7310.86
3211.04	7297.11
3212.29	7325.98
3213.55	7296.95
3214.81	7322.65
3216.06	7288.52
3217.32	7280.39
3218.57	7325.61
3219.83	7304.59
3221.08	7282.94
3222.34	7295.43
3223.59	7305.12
3224.85	7277.26
3226.1	7278.38
3227.35	7287.38
3228.61	7295.34
3229.86	7291.37
3231.11	7288.32
3232.37	7285.22
3233.62	7272.81
3234.87	7263.56
3236.12	7271.96
3237.38	7285.86
3238.63	7261.08
3239.88	7259.48
3241.13	7256.88
3242.38	7258.87
3243.63	7262.57
3244.89	7244.96
3246.14	7240.02
3247.39	7242.93
3248.64	7220.52
3249.89	7226.91
3251.14	7232.02
3252.39	7222.42
3253.64	7204.52
3254.88	7204.28
3256.13	7214.31
3257.38	7192.57
3258.63	7159.23
3259.88	7170.54
3261.13	7170.25
3262.37	7161.09
3263.62	7154.54
3264.87	7158.36
3266.12	7161.94
3267.36	7152.15
3268.61	7158.52
3269.86	7164.73
3271.1	7151.43
3272.35	7140.02
3273.6	7139.61
3274.84	7140.91
3276.09	7131.66
3277.33	7114.29
3278.58	7104.51
3279.82	7099.32
3281.07	7090.96
3282.31	7083.2
3283.56	7086.67
3284.8	7105.51
3286.04	7119.51
3287.29	7103.82
3288.53	7091.02
3289.77	7073.65
3291.02	7069.54
3292.26	7070.25
3292.9	7058.5
3294.15	7054.21
3295.39	7060.7
3296.64	7031.88
3297.89	7049.37
3299.14	7054.36
3300.38	7093.01
3301.63	7005.61
3302.88	7037.89
3304.12	7053.63
3305.37	7045.24
3306.62	7029.97
3307.86	7018.5
3309.11	7033.02
3310.35	7012.01
3311.6	7008.77
3312.84	7023.54
3314.09	7030.81
3315.34	7007.91
3316.58	7016.45
3317.82	7002.47
3319.07	7011.42
3320.31	7042.01
3321.56	7016.44
3322.8	7049.43
3324.04	7004.76
3325.29	7012.07
3326.53	7009.45
3327.77	7004.72
3329.01	7003.49
3330.25	7027.5
3331.5	6988.16
3332.74	7011.58
3333.98	6976.51
3335.22	7023.67
3336.46	6971.15
3337.7	7003.24
3338.94	7002.15
3340.19	7007.57
3341.42	6999.1
3342.67	6969.07
3343.9	6972.11
3345.15	6957.04
3346.38	6995.57
3347.62	6970.2
3348.86	6963.53
3350.1	7022.89
3351.34	6995.31
3352.58	6973.24
3353.82	6971.53
3355.06	6955.82
3356.29	6970.11
3357.53	6968.68
3358.77	6951.54
3360	6990.94
3361.24	6979.6
3362.48	6967.02
3363.71	6955.26
3364.95	6968.76
3366.19	6951.45
3367.42	6950.93
3368.66	6949.78
3369.89	6941.97
3371.13	6953.09
3372.36	6978.81
3373.6	6955.14
3374.83	6964.86
3376.07	6960.92
3377.3	6954.16
3378.54	6966.36
3379.77	6932.82
3381	6970.56
3382.24	6924.36
3383.47	6943.94
3384.7	6969.39
3385.94	6966.11
3387.17	6971.81
3388.4	6951.03
3389.63	6951.72
3390.87	6958.52
3392.1	6954.2
3393.33	6923.29
3394.56	6968.37
3395.79	6963.43
3397.02	6944.68
3398.25	6959.52
3399.48	6941.87
3400.71	6939.8
3401.94	6988.54
3403.17	6931.05
3404.4	6940.22
3405.63	6903.65
3406.86	6927.54
3408.09	6927.95
3409.32	6943.22
3410.55	6943.72
3411.78	6930.42
3413	6944.85
3414.23	6937.96
3415.46	6912.44
3416.69	6904.93
3417.92	6906.25
3419.14	6880.56
3420.37	6927.16
3421.6	6904.41
3422.82	6878.54
3424.05	6881.27
3425.27	6861.98
3426.5	6842.25
3427.73	6872.26
3428.95	6837.85
3430.18	6867.91
3431.4	6880.31
3432.63	6824.34
3433.85	6856.15
3435.08	6820.94
3436.3	6824.85
3437.53	6814.91
3438.75	6806.35
3439.97	6860.82
3441.2	6815.75
3442.42	6826.48
3443.64	6795.14
3444.86	6779.06
3446.09	6743.35
3447.31	6757.22
3448.53	6775.79
3449.75	6772.57
3450.98	6738.96
3452.2	6750.76
3453.42	6725.22
3454.64	6720.54
3455.86	6687.97
3457.08	6724.74
3458.3	6739.17
3459.52	6731.81
3460.74	6730.83
3461.96	6684.34
3463.18	6694.21
3464.4	6682.83
3465.62	6646.05
3466.84	6640.89
3468.06	6634.98
3469.28	6637.6
3470.5	6608.54
3471.72	6631.97
3472.93	6629.84
3474.15	6580.25
3475.37	6605.34
3476.59	6551.13
3477.8	6557.37
3479.02	6536.53
3480.24	6539.95
3481.45	6517.56
3482.67	6503.13
3483.89	6475.47
3485.1	6508.99
3486.32	6495.72
3487.53	6443.17
3488.75	6446.52
3489.96	6445.86
3491.18	6436.76
3492.39	6417.31
3493.61	6408.68
3494.82	6394.1
3496.04	6405.68
3497.25	6382.04
3498.47	6356.77
3499.68	6351.59
