#Acq. time (s)=	10
#Accumulations=	10
#Range (cm-¹)=	400...3500
#Windows=	3
#Auto scanning=	Off
#Autofocus=	Off
#AutoExposure=	Off
#Spike filter=	Multiple accum.
#Delay time (s)=	0
#Binning=	1
#Readout mode=	Signal
#DeNoise=	Off
#ICS correction=	On
#Dark correction=	Off
#Inst. Process=	Off
#Detector Gain=	Best Dynamic Range
#Detector ADC=	45 kHz       
#Detector temperature (°C)=	-60.1
#Instrument=	LabRAM HR Evol
#Detector=	Syncerity OE
#Objective=	x50_VIS_LWD
#Grating=	600 (500nm)
#ND Filter=	50%
#Laser=	532nm_Edge
#Hole=	199.981
#Range=	Visible
#E-Cal_Neon=	0
#StageXY=	75x50mm Scan+
#StageZ=	Z motor
#X (µm)=	0
#Y (µm)=	0
#Z (µm)=	416.6
#Spectral res.(cm-¹)=	12.8
#Full time(mm:ss)=	5:19
#AC=	Calibrated 2025-07-01 10:31
#Project=	
#Sample=	
#Site=	
#Title=	D_1
#Remark=	
#Date=	01.07.2025 15:12 (India Standard Time)
#Acquired=	01.07.2025 15:12:52 (India Standard Time)
#AxisType[0]=Intens
#AxisUnit[0]=Cnt
#AxisType[1]=Spectr
#AxisUnit[1]=1/cm
400.083	13134.8
401.858	13149.6
403.63	13077.7
405.405	13105.8
407.176	13116
408.949	13122.3
410.72	13118.4
412.493	13103.4
414.263	13121.9
416.033	13138.7
417.805	13136.5
419.574	13130.8
421.345	13180.1
423.114	13184.8
424.884	13159.4
426.652	13165.1
428.421	13179.8
430.188	13199.4
431.955	13192.5
433.724	13149.4
435.49	13187.1
437.258	13153.3
439.023	13158
440.788	13174.5
442.555	13146.9
444.32	13146.7
446.084	13092.9
447.85	13132.3
449.613	13155.2
451.376	13112.7
453.141	13137.3
454.904	13110.5
456.666	13093.4
458.429	13077.7
460.191	13124.4
461.952	13116.3
463.715	13030.8
465.475	13101.4
467.235	13102.2
468.995	13151.6
470.756	13097.9
472.515	13097.2
474.274	13114.6
476.032	13133.4
477.793	13136.8
479.55	13102.6
481.308	13051.7
483.065	13116.9
484.823	13093.9
486.58	13050.9
488.336	13139.2
490.091	13089.7
491.847	13059.3
493.604	13115.5
495.358	13075.7
497.113	13136.9
498.867	13132
500.62	13180.2
502.374	13188.7
504.127	13171
505.881	13187.4
507.634	13199.1
509.386	13197.1
511.137	13173.8
512.888	13218.5
514.639	13159.3
516.39	13166
518.14	13154.4
519.89	13122
521.642	13108
523.391	13113
525.14	13104.3
526.889	13098.8
528.637	13111.7
530.385	13159.9
532.133	13091.7
533.88	13125.9
535.627	13087.5
537.373	13049.7
539.12	13105.1
540.866	13062.9
542.611	13070.2
544.357	13075.9
546.101	13070.1
547.846	13043.7
549.59	13030.8
551.334	13084.2
553.078	13113.9
554.821	13089.6
556.564	13078.9
558.307	13058.2
560.049	13118.1
561.789	13021.5
563.53	13080.1
565.272	13103.2
567.013	13114.9
568.753	13101.9
570.494	13065.1
572.233	13078.1
573.973	13046
575.712	13068.3
577.449	13078.1
579.188	13072
580.926	13088
582.664	13084.6
584.402	13118.8
586.139	13105.4
587.876	13074.7
589.611	13077.2
591.347	13067.2
593.083	13056.7
594.818	13058.7
596.554	13054.8
598.287	13092
600.021	13021.1
601.756	13040.8
603.49	13096.4
605.221	13065.6
606.955	13067.7
608.688	13040.3
610.42	13059.4
612.15	13067.1
613.882	13044.8
615.614	13043.6
617.345	13036.9
619.074	12998.9
620.805	12996.3
622.535	13025.3
624.263	12979.2
625.993	12931.9
627.722	12956.2
629.45	12938
631.178	12971.8
632.907	12915.6
634.633	12942.5
636.36	13014.6
638.088	12977.5
639.813	13012.9
641.539	12987.6
643.264	12969.1
644.99	12961.4
646.716	12950.4
648.439	12995.8
650.164	12932.5
651.887	12954.1
653.611	12975.1
655.335	12939.2
657.057	12881.2
658.781	12947.1
660.502	12926.4
662.225	12941.5
663.945	12850.5
665.667	12909.7
667.387	12931.1
669.108	12921.9
670.828	12915.4
672.548	12869.3
674.267	12922.4
675.987	12930.1
677.705	12929.5
679.424	12874.8
681.142	12823.4
682.86	12877.1
684.577	12882.5
686.293	12855.6
688.011	12888.2
689.727	12829.9
691.444	12897.6
693.159	12889.2
694.875	12918.1
696.59	12957.2
698.304	12909.8
700.019	12919.5
701.733	12900.5
703.448	12906.3
705.16	12842.7
706.872	12845.1
708.586	12821.3
710.298	12826
712.01	12836.6
713.723	12817.4
715.433	12822.4
717.144	12763.6
718.856	12816.3
720.565	12807.5
722.275	12793.8
723.984	12823.5
725.695	12805.4
727.403	12736.5
729.111	12800.8
730.821	12822.9
732.528	12772.6
734.235	12826.5
735.942	12784.1
737.651	12802.6
739.357	12788.2
741.063	12765.1
742.768	12747.9
744.474	12718.9
746.18	12747.5
747.885	12753.6
749.589	12740.3
751.293	12807.4
752.997	12782.8
754.702	12790.7
756.405	12815.2
758.108	12830.8
759.81	12800
761.512	12789.1
763.214	12781.7
764.915	12779.2
766.618	12770
768.319	12792.7
770.019	12764.5
771.719	12776.3
773.419	12771.1
775.118	12823.5
776.817	12835.6
778.516	12744.6
780.214	12787.5
781.913	12801.7
783.61	12773.6
785.308	12737.7
787.005	12757.2
788.702	12780.5
790.398	12742.7
792.095	12740
793.791	12651.1
795.486	12704.9
797.181	12724.7
798.876	12721.3
800.571	12689.8
802.265	12697.6
803.959	12718
805.653	12727.4
807.346	12674
809.039	12651.8
810.732	12640.2
812.424	12664.5
814.116	12631.7
815.808	12652.9
817.5	12615.8
819.191	12669.2
820.881	12634.5
822.572	12696.6
824.26	12702.5
825.95	12650.8
827.639	12688.3
829.329	12641.7
831.018	12691.2
832.706	12675.3
834.394	12668.5
836.08	12644.9
837.768	12677.3
839.455	12622.3
841.142	12709.2
842.829	12695.1
844.513	12714.6
846.199	12721.5
847.885	12719.5
849.57	12697.9
851.255	12778.4
852.938	12728
854.623	12713.4
856.307	12753.6
857.991	12741.5
859.672	12758.2
861.355	12790.9
863.038	12788.9
864.719	12731.2
866.401	12707.8
868.083	12690
869.765	12714.6
871.444	12747.8
873.125	12802.4
874.806	12739.7
876.484	12776.7
878.164	12770.4
879.844	12730.3
881.521	12719
883.2	12711
884.877	12727.5
886.555	12673.3
888.234	12678.4
889.909	12655.1
891.587	12628
893.262	12622.2
894.939	12607.4
896.616	12519.1
898.29	12582.4
899.966	12532
901.64	12472.2
903.315	12492.4
904.988	12465.4
906.663	12386.1
908.335	12431.4
910.009	12403.4
911.683	12357.1
913.354	12433.9
915.027	12353.6
916.698	12373.6
918.369	12363
920.041	12396.1
921.711	12381.8
923.383	12392.1
925.052	12404.7
926.723	12358.4
928.391	12357.9
930.062	12305.2
931.73	12277.9
933.399	12236.1
935.067	12271.6
936.734	12208.3
938.403	12283.5
940.069	12291.2
941.737	12229.3
943.403	12207.9
945.069	12227.3
946.736	12238.1
948.401	12185.1
950.065	12198.8
951.732	12189.1
953.396	12151.9
955.059	12178.9
956.725	12137
958.388	12161.8
960.051	12192.8
961.715	12125.5
963.377	12159.6
965.039	12195.5
966.7	12151.7
968.364	12199.3
970.025	12169.9
971.685	12144.1
973.345	12199.6
975.007	12171.9
976.667	12105.2
978.326	12139
979.985	12165.4
981.646	12185.6
983.304	12111.9
984.963	12139.7
986.62	12163.2
988.278	12144.9
989.935	12142.7
991.594	12152.7
993.25	12170.9
994.907	12137.3
996.563	12164.3
998.218	12235.7
999.874	12286.3
1001.53	12206.4
1003.19	12164.9
1004.84	12148
1006.49	12164.5
1008.15	12096.5
1009.8	12107.9
1011.45	12140.9
1013.11	12133.3
1014.76	12157.6
1016.41	12124.4
1018.06	12176.6
1019.72	12126.5
1021.37	12140.5
1023.02	12105.3
1024.67	12125.9
1026.32	12077.5
1027.97	12097.9
1029.62	12044.4
1031.27	12042.8
1032.92	12064.9
1034.57	12074.1
1036.22	12092.2
1037.86	12010.3
1039.51	12041
1041.16	12047.2
1042.81	12033.8
1044.45	12040.5
1046.1	12031.9
1047.75	12046.2
1049.39	12040.1
1051.04	12066.2
1052.68	12031.8
1054.33	12103
1055.97	12088.9
1057.62	12070.3
1059.26	12080.8
1060.91	12077.2
1062.55	12137.4
1064.19	12115.4
1065.83	12081.7
1067.48	12106.4
1069.12	12145.5
1070.76	12140.1
1072.4	12174.4
1074.04	12166.9
1075.68	12168.7
1077.32	12153.5
1078.97	12225.5
1080.61	12174.8
1082.24	12120.6
1083.88	12066.1
1085.52	12112.1
1087.16	12077.1
1088.8	12023.1
1090.44	12005.8
1092.08	11939.5
1093.71	11975.2
1095.35	11927.9
1096.99	11915.2
1098.62	11858.6
1100.26	11881.7
1101.9	11821.2
1103.53	11852.4
1105.17	11817.2
1106.8	11799.4
1108.44	11836.8
1110.07	11824.2
1111.7	11867
1113.34	11860
1114.97	11886.3
1116.6	11890.7
1118.23	11864.2
1119.87	11903
1121.5	11881.9
1123.13	11840.4
1124.76	11823.9
1126.39	11812.3
1128.03	11745.5
1129.65	11676
1131.29	11678.9
1132.91	11697.7
1134.54	11689.5
1136.17	11628.9
1137.8	11639.5
1139.43	11622.4
1141.06	11603.9
1142.69	11602.6
1144.31	11591.1
1145.94	11604.8
1147.57	11642.8
1149.19	11614.7
1150.82	11596
1152.45	11647.4
1154.07	11649.2
1155.7	11633
1157.32	11539.7
1158.95	11552.5
1160.57	11517.5
1162.2	11520.8
1163.82	11490.7
1165.44	11467.4
1167.07	11506.8
1168.69	11471.5
1170.31	11458.1
1171.94	11425.9
1173.56	11433.8
1175.18	11432.4
1176.8	11404.7
1178.42	11362.8
1180.04	11394.3
1181.66	11351.1
1183.28	11390.1
1184.9	11392.4
1186.52	11360
1188.14	11376.6
1189.76	11397.5
1191.38	11316.5
1192.99	11346.7
1194.61	11327
1196.23	11377.8
1197.85	11341.8
1199.46	11313.6
1201.08	11285.5
1202.7	11325.3
1204.31	11283.7
1205.93	11315.8
1207.54	11313.3
1209.16	11299
1210.78	11290.1
1212.39	11297.3
1214	11308.2
1215.62	11300
1217.23	11314
1218.84	11293.1
1220.46	11295.3
1222.07	11295.8
1223.68	11333.5
1225.29	11301.3
1226.91	11318.5
1228.52	11268.7
1230.13	11352.4
1231.74	11295.6
1233.35	11275
1234.96	11290.5
1236.57	11291.4
1238.18	11278.7
1239.79	11301.4
1241.4	11308.4
1243	11342.5
1244.61	11346.9
1246.22	11370.3
1247.83	11358.2
1249.43	11350.1
1251.04	11322.8
1252.65	11298.6
1254.25	11389.1
1255.86	11358.2
1257.47	11348.5
1259.07	11317.8
1260.68	11389.3
1262.28	11366.1
1263.89	11325.2
1265.49	11332.3
1267.09	11343.4
1268.7	11278.3
1270.3	11234.1
1271.9	11247.3
1273.51	11250
1275.11	11203.7
1276.71	11217.7
1278.31	11203.5
1279.91	11185.6
1281.52	11230.7
1283.12	11184.4
1284.72	11185.7
1286.32	11142.1
1287.92	11204.2
1289.52	11218.3
1291.12	11231.6
1292.72	11264
1294.31	11264.4
1295.91	11283.9
1297.51	11288.1
1299.11	11289.4
1300.71	11316.5
1302.3	11255.3
1303.9	11263.1
1305.5	11260.4
1307.09	11222.8
1308.69	11183.4
1310.28	11173.4
1311.88	11162.2
1313.47	11128.3
1315.07	11130.5
1316.66	11120
1318.26	11059.4
1319.85	11070.9
1321.44	11081.1
1323.04	11015
1324.63	11052.5
1326.22	11027.6
1327.82	11023.9
1329.41	11054.6
1331	11056.5
1332.59	11034.3
1334.18	11026.9
1335.77	11037.5
1337.36	11039.4
1338.95	11016.8
1340.54	11019.1
1342.13	10993.2
1343.72	10964.7
1345.31	11016.3
1346.9	10980.1
1348.49	10971.3
1350.07	10961.1
1351.66	10940.4
1353.25	10909.2
1354.84	10897.2
1356.42	10876.7
1358.01	10899.7
1359.6	10869.3
1361.18	10866.2
1362.77	10857
1364.35	10854.3
1365.94	10862.4
1367.52	10825.1
1369.11	10846.9
1370.69	10846.6
1372.28	10814.5
1373.86	10784.9
1375.44	10751.4
1377.02	10759.5
1378.61	10706.8
1380.19	10746.1
1381.77	10679.1
1383.35	10695.1
1384.93	10702.7
1386.52	10731.4
1388.1	10751.3
1389.68	10719.1
1391.26	10699.2
1392.84	10709.5
1394.41	10722
1396	10709
1397.57	10704.1
1399.15	10687.6
1400.73	10708.1
1402.31	10714.5
1403.89	10682.4
1405.46	10669.6
1407.04	10697.4
1408.62	10694.8
1410.19	10693.8
1411.77	10750.1
1413.35	10743.6
1414.92	10714.8
1416.5	10765.2
1418.07	10729.6
1419.65	10771.9
1421.22	10732.9
1422.8	10752.2
1424.37	10716.1
1425.94	10745
1427.52	10830.6
1429.09	10838.9
1430.66	10878.5
1432.23	10958.1
1433.8	11008.5
1435.38	11034.7
1436.95	11030.6
1438.52	11014.1
1440.09	10973.7
1441.66	11020.6
1443.23	10949.4
1444.8	10955
1446.37	10935.1
1447.94	10877.3
1449.51	10944.5
1451.08	10850
1452.65	10833.4
1454.22	10853.9
1455.78	10879.2
1457.35	10757.4
1458.92	10766.1
1460.48	10703.3
1462.05	10752.9
1463.62	10657.2
1465.18	10628.4
1466.75	10525.5
1468.31	10555.5
1469.88	10470.8
1471.44	10434.1
1473.01	10402
1474.57	10328.5
1476.14	10349.1
1477.7	10280.5
1479.26	10245
1480.83	10250
1482.39	10241.8
1483.95	10219.1
1485.51	10231.6
1487.08	10173.3
1488.64	10178.5
1490.2	10145.6
1491.76	10211
1493.32	10182.1
1494.88	10205.6
1496.44	10183.8
1498	10155.2
1499.56	10164.1
1501.12	10178.4
1502.68	10133.9
1504.24	10105.7
1505.8	10159.4
1507.35	10098.9
1508.91	10135.7
1510.47	10146
1512.03	10172.4
1513.58	10155.5
1515.14	10128.9
1516.69	10128.8
1518.25	10135.2
1519.81	10132.3
1521.36	10130.7
1522.92	10158
1524.47	10110.5
1526.03	10103.4
1527.58	10082.7
1529.13	10088.4
1530.69	10057.1
1532.24	10011.8
1533.79	10060.1
1535.35	9987.64
1536.9	10019.1
1538.45	10041.9
1540	10054.6
1541.55	9981.01
1543.11	10024.9
1544.66	10015
1546.21	10020.9
1547.76	9978.67
1549.31	10005
1550.86	10058.8
1552.41	10083.7
1553.96	10041.7
1555.5	10012.2
1557.05	9918.92
1558.6	9991.63
1560.15	9938.82
1561.7	9985.04
1563.24	9953.78
1564.79	9975.73
1566.34	9931.38
1567.88	9976.54
1569.43	9980.72
1570.98	9977.95
1572.52	9932.9
1574.07	9933.68
1575.61	9940.69
1577.16	9906.05
1578.7	9919.8
1580.25	9929.55
1581.79	9930.73
1583.34	9919.29
1584.88	9926.06
1586.42	9872.12
1587.96	9921.55
1589.51	9940.72
1591.05	9947.95
1592.59	9877.05
1594.13	9906.26
1595.67	9941.02
1597.21	9933.56
1598.76	9887.42
1600.3	9965.03
1601.83	9949.6
1603.37	9930.02
1604.92	9890.35
1606.45	9937.7
1607.99	9903.32
1609.53	9922.77
1611.07	9942.88
1612.61	9886.07
1614.15	9880.48
1615.68	9887.53
1617.22	9841.72
1618.76	9880.94
1620.29	9814.59
1621.83	9827.85
1623.37	9862.72
1624.9	9849.28
1626.44	9862.56
1627.97	9883.79
1629.51	9864.1
1631.04	9866.92
1632.58	9879.86
1634.11	9841.65
1635.64	9863.73
1637.18	9836.18
1638.71	9910.69
1640.24	9879.72
1641.78	9886.6
1643.31	9904.63
1644.84	9945.9
1646.37	9915.85
1647.9	9951.03
1649.44	9958.24
1650.97	9996.36
1652.5	9959.39
1654.03	9972.96
1655.56	9945.7
1657.09	9845.66
1658.62	9905.42
1660.14	9893.97
1661.67	9789.6
1663.2	9812.07
1664.73	9811.78
1666.26	9735.66
1667.79	9775.5
1669.31	9724.37
1670.84	9693.7
1672.37	9653.83
1673.89	9745.38
1675.42	9671.24
1676.95	9629.85
1678.47	9588.83
1680	9604.34
1681.52	9579.32
1683.05	9556.38
1684.57	9516.75
1686.1	9460.86
1687.62	9472.9
1689.14	9458.97
1690.67	9469.39
1692.19	9399.73
1693.71	9455.22
1695.23	9405.14
1696.76	9412.2
1698.28	9354.48
1699.8	9355.16
1701.32	9361.31
1702.84	9262.4
1704.36	9341.83
1705.88	9334.65
1707.4	9331.91
1708.92	9267.56
1710.44	9262.55
1711.96	9287.31
1713.48	9261.36
1715	9233.42
1716.52	9260.99
1718.04	9229.58
1719.56	9222.62
1721.07	9221.22
1722.59	9233
1724.11	9227.65
1725.63	9187.21
1727.14	9158.25
1728.66	9221.01
1730.17	9178.6
1731.69	9189.63
1733.2	9151.26
1734.72	9201.01
1736.23	9170.08
1737.75	9175.42
1739.26	9181.9
1740.78	9195.5
1742.29	9169.53
1743.8	9156.97
1745.32	9200.25
1746.83	9159.59
1748.34	9102.95
1749.86	9109.89
1751.37	9108.24
1752.88	9053.84
1754.39	9074.94
1755.9	9013.07
1757.41	9022.35
1758.92	8985.9
1760.43	8993.16
1761.94	8964.63
1763.45	8958.07
1764.96	8930.37
1766.47	8997.86
1767.98	8977.01
1769.49	8915.11
1771	8937.73
1772.5	8975.69
1774.01	8943.15
1775.52	8940.68
1777.03	8941.15
1778.53	8927.15
1780.04	8917.98
1781.55	8931.68
1783.05	8884.03
1784.56	8856.84
1786.06	8922.53
1787.57	8921.71
1789.07	8876.41
1790.58	8898.47
1792.08	8894.44
1793.59	8929.22
1795.09	8850.87
1796.59	8897.14
1798.1	8835.39
1799.6	8815
1801.1	8832.28
1802.61	8834.68
1804.11	8852.03
1805.61	8801.66
1807.11	8774.02
1808.61	8836.7
1810.11	8794
1811.61	8782.06
1813.11	8768.01
1814.61	8753.26
1816.11	8731.09
1817.61	8768.15
1819.11	8731.24
1820.61	8759.24
1822.11	8757.63
1823.61	8732.3
1825.11	8744.15
1826.6	8715.79
1828.1	8692.61
1829.6	8724.61
1831.1	8724.21
1832.59	8751.59
1834.09	8663.88
1835.59	8692.05
1837.08	8682.25
1838.58	8687.92
1840.07	8663.09
1841.57	8635.56
1843.06	8674.61
1844.56	8670.53
1846.05	8685.81
1847.54	8654.78
1849.04	8628.88
1850.53	8655.23
1852.02	8645.41
1853.52	8612.38
1855.01	8599.79
1856.5	8589.53
1857.99	8574.78
1859.49	8630.12
1860.98	8549.96
1862.47	8597.03
1863.96	8587.19
1865.45	8593.92
1866.94	8564.96
1868.43	8557.73
1869.92	8539.92
1871.41	8537.06
1872.9	8535.45
1874.39	8551.71
1875.88	8570.38
1877.37	8525.07
1878.85	8556.25
1880.34	8491.24
1881.83	8501.73
1883.32	8490.58
1884.8	8502.68
1886.29	8474.35
1887.78	8483.05
1889.26	8476.39
1890.75	8451.2
1892.23	8463.21
1893.72	8425.8
1895.21	8469.78
1896.69	8422.52
1898.17	8447.47
1899.66	8438.9
1901.14	8385.84
1902.63	8364.31
1904.11	8355.51
1905.59	8334.57
1907.08	8296.11
1908.56	8305.68
1910.04	8264.55
1911.52	8252.76
1913	8247.46
1914.49	8194.87
1915.97	8159.89
1917.45	8131.43
1918.93	8122.1
1920.41	8125.65
1921.89	8116.48
1923.37	8043.59
1924.85	8054.45
1926.33	7995.84
1927.81	8038.25
1929.29	7976.81
1930.76	7986.14
1932.24	7963.91
1933.72	7938.35
1935.2	7926.92
1936.67	7889.95
1938.15	7887.73
1939.63	7842.67
1941.1	7834.3
1942.58	7839.37
1944.06	7825.44
1945.53	7818.9
1947.01	7744.52
1948.48	7766.6
1949.96	7740.67
1951.43	7699.54
1952.91	7691.69
1954.38	7649.46
1955.86	7637.82
1957.33	7624.33
1958.8	7609.49
1960.27	7600.8
1961.75	7600.8
1963.22	7551.54
1964.69	7536.86
1966.16	7511.22
1967.64	7493.04
1969.11	7494.04
1970.58	7471.04
1972.05	7477.16
1973.52	7435.09
1974.99	7413.38
1976.46	7403.64
1977.93	7376.51
1979.4	7385.27
1980.87	7340.18
1982.34	7334.76
1983.81	7323.31
1985.27	7319.19
1986.74	7304.18
1988.21	7255.36
1989.68	7248.93
1991.14	7242.39
1992.61	7227.91
1994.08	7194.85
1995.55	7168.02
1997.01	7145.09
1998.48	7133.5
1999.94	7094.81
2001.41	7089.35
2002.87	7089.48
2004.34	7069.06
2005.8	7039.45
2007.27	7052.56
2008.73	7028.15
2010.19	7019.63
2011.66	7002.65
2013.12	7020.63
2014.58	6991.17
2016.05	6955.91
2017.51	6963.29
2018.97	6931.72
2020.43	6896.21
2021.89	6877.07
2023.36	6879.12
2024.82	6878.63
2026.28	6878.32
2027.74	6857.97
2029.2	6836.05
2030.66	6811.42
2032.12	6790.65
2033.58	6803.23
2035.04	6763.68
2036.49	6744.6
2037.95	6761.7
2039.41	6749.81
2040.87	6760.54
2042.33	6739.88
2043.78	6694.83
2045.24	6667.81
2045.76	6659.57
2047.22	6701.8
2048.69	6662.34
2050.15	6679.43
2051.61	6641.14
2053.07	6643.2
2054.54	6671.25
2056	6634.71
2057.46	6636.2
2058.92	6642.11
2060.38	6590.77
2061.84	6617.31
2063.3	6625.92
2064.76	6641.07
2066.22	6608.35
2067.68	6619.41
2069.14	6624.12
2070.6	6596.27
2072.06	6626.01
2073.52	6573.36
2074.98	6597
2076.44	6568.17
2077.89	6581.69
2079.35	6573.12
2080.81	6594.43
2082.27	6577.57
2083.72	6602.22
2085.18	6554.79
2086.63	6593.66
2088.09	6540.02
2089.55	6529.85
2091	6535.35
2092.46	6540.18
2093.91	6528.86
2095.37	6509.37
2096.82	6516.12
2098.28	6541.79
2099.73	6529.58
2101.18	6512.64
2102.64	6508.39
2104.09	6493.01
2105.54	6496.09
2106.99	6472.39
2108.45	6483.33
2109.9	6482.26
2111.35	6440.34
2112.8	6435.73
2114.25	6463.18
2115.71	6397.23
2117.16	6441.69
2118.61	6434.25
2120.06	6457.84
2121.51	6428.31
2122.96	6426.24
2124.4	6429.72
2125.85	6415.46
2127.3	6393.69
2128.75	6402.15
2130.2	6366.6
2131.65	6405.86
2133.09	6379.85
2134.54	6380.08
2135.99	6427.85
2137.44	6378.29
2138.88	6389.53
2140.33	6381.33
2141.78	6363.67
2143.22	6354.25
2144.67	6385.08
2146.11	6374.73
2147.56	6359.01
2149	6315.73
2150.45	6317.45
2151.89	6311.27
2153.34	6341.06
2154.78	6340.43
2156.22	6344.89
2157.67	6330.13
2159.11	6330.8
2160.55	6331.41
2162	6316.65
2163.44	6329.66
2164.88	6312.23
2166.32	6313.81
2167.76	6296.39
2169.2	6344.74
2170.64	6293.83
2172.09	6293.88
2173.53	6281.32
2174.97	6267.26
2176.41	6302.3
2177.85	6281.74
2179.29	6288.9
2180.72	6276.98
2182.16	6238.17
2183.6	6241.73
2185.04	6223.16
2186.48	6251.13
2187.92	6242.44
2189.35	6215.98
2190.79	6258.66
2192.23	6234.64
2193.66	6256.17
2195.1	6226.87
2196.54	6232.69
2197.97	6207.23
2199.41	6188.33
2200.84	6182.92
2202.28	6212.94
2203.71	6200.98
2205.15	6172.48
2206.58	6198.2
2208.02	6171.66
2209.45	6145.31
2210.88	6115.59
2212.32	6123.48
2213.75	6130.02
2215.18	6134.06
2216.62	6116.1
2218.05	6094.42
2219.48	6078.56
2220.91	6090.36
2222.34	6126.3
2223.78	6076.35
2225.21	6102.25
2226.64	6051.83
2228.07	6065.15
2229.5	6038.95
2230.93	6071.15
2232.36	6086.1
2233.79	6033.4
2235.22	6025.71
2236.65	6027.7
2238.07	6012.52
2239.5	6032.91
2240.93	6008.83
2242.36	6019
2243.79	5990.64
2245.21	5997.02
2246.64	5987.88
2248.07	5967.98
2249.49	5987.48
2250.92	5986.08
2252.35	5948.81
2253.77	5986.48
2255.2	5931.41
2256.62	5906.14
2258.05	5922.26
2259.47	5913.67
2260.9	5883.82
2262.32	5872.19
2263.75	5864.09
2265.17	5910.52
2266.59	5856.58
2268.02	5866.29
2269.44	5832.82
2270.86	5846.87
2272.29	5821.82
2273.71	5828.81
2275.13	5802.33
2276.55	5826.14
2277.97	5830.76
2279.39	5812.11
2280.81	5782.06
2282.24	5786.82
2283.66	5759.08
2285.08	5790.48
2286.5	5742.45
2287.92	5745.01
2289.34	5752.3
2290.75	5747.03
2292.17	5758.5
2293.59	5718.29
2295.01	5735.49
2296.43	5717.33
2297.85	5709.1
2299.26	5721.19
2300.68	5736.38
2302.1	5726.99
2303.51	5671.08
2304.93	5699.86
2306.35	5657.06
2307.76	5643.19
2309.18	5636.73
2310.6	5658.19
2312.01	5654.95
2313.43	5687.4
2314.84	5648.73
2316.25	5600.26
2317.67	5625.5
2319.08	5586.17
2320.5	5644.68
2321.91	5640.08
2323.32	5671.23
2324.74	5751.17
2326.15	5827.21
2327.56	5909.26
2328.98	5809.26
2330.39	5651.18
2331.8	5568.38
2333.21	5528.6
2334.62	5535.11
2336.03	5526.53
2337.44	5528.02
2338.85	5542.39
2340.26	5524.66
2341.67	5540.16
2343.08	5489.19
2344.49	5521.02
2345.9	5492.14
2347.31	5497.86
2348.72	5483.43
2350.13	5441.64
2351.54	5474.65
2352.94	5420.59
2354.35	5461.3
2355.76	5449.13
2357.17	5440.85
2358.57	5402.04
2359.98	5406.36
2361.39	5405.58
2362.79	5386.29
2364.2	5394.98
2365.6	5418.36
2367.01	5400.23
2368.41	5359.78
2369.82	5367.97
2371.22	5350.08
2372.63	5354.3
2374.03	5349.76
2375.44	5325.52
2376.84	5334.12
2378.24	5362.05
2379.65	5320.85
2381.05	5312.58
2382.45	5324.88
2383.85	5320.1
2385.26	5316.32
2386.66	5294.82
2388.06	5303.27
2389.46	5297.43
2390.86	5308.5
2392.26	5294.72
2393.66	5276.91
2395.06	5286.77
2396.46	5262.17
2397.86	5259.79
2399.26	5261
2400.66	5240.4
2402.06	5242.1
2403.46	5251.18
2404.86	5242.7
2406.26	5223.49
2407.66	5209.71
2409.05	5261
2410.45	5237.27
2411.85	5253.23
2413.24	5222.49
2414.64	5229.41
2416.04	5208.18
2417.43	5185.21
2418.83	5183.83
2420.23	5205.3
2421.62	5169.36
2423.02	5193.8
2424.41	5187.75
2425.81	5165.28
2427.2	5167.93
2428.6	5103.42
2429.99	5153.84
2431.38	5171.47
2432.78	5152.45
2434.17	5167.02
2435.56	5115.32
2436.96	5136.44
2438.35	5103.61
2439.74	5111.74
2441.13	5126.63
2442.53	5084.05
2443.92	5110.55
2445.31	5099.04
2446.7	5100.11
2448.09	5085.58
2449.48	5081.17
2450.87	5088.35
2452.26	5061.06
2453.65	5062.45
2455.04	5098.01
2456.43	5066.16
2457.82	5052.13
2459.21	5036.04
2460.6	5038.2
2461.98	5015.22
2463.37	5013.78
2464.76	5017
2466.15	5021.6
2467.53	5024.83
2468.92	5006.57
2470.31	5006.08
2471.7	5003.75
2473.08	4965.83
2474.47	4986.44
2475.85	4986.52
2477.24	4978.15
2478.63	4970.15
2480.01	4952.41
2481.39	4958.58
2482.78	4939.88
2484.16	4989.99
2485.55	4936.2
2486.93	4977.36
2488.32	4930.57
2489.7	4927
2491.08	4922.24
2492.46	4915.73
2493.85	4945.23
2495.23	4928.37
2496.61	4888.13
2497.99	4956.46
2499.38	4874.39
2500.76	4896.45
2502.14	4892.17
2503.52	4905.29
2504.9	4848.33
2506.28	4860.41
2507.66	4866.29
2509.04	4835.25
2510.42	4852.32
2511.8	4842.45
2513.18	4844.87
2514.56	4836
2515.94	4830.98
2517.31	4828.14
2518.69	4837.11
2520.07	4844.82
2521.45	4812.55
2522.82	4815.92
2524.2	4807.95
2525.58	4833.72
2526.96	4822.53
2528.33	4807.75
2529.71	4766.98
2531.09	4808.5
2532.46	4764.9
2533.84	4818.63
2535.21	4777.48
2536.59	4789.41
2537.96	4780.98
2539.34	4758.81
2540.71	4790.26
2542.08	4758.52
2543.46	4732.9
2544.83	4729.32
2546.2	4745.21
2547.58	4705.99
2548.95	4699.84
2550.32	4709.83
2551.7	4723.58
2553.07	4703.62
2554.44	4709.23
2555.81	4714.14
2557.18	4697.63
2558.55	4705.39
2559.92	4679.43
2561.29	4679.47
2562.66	4680.38
2564.03	4668.02
2565.4	4652.88
2566.77	4673.66
2568.14	4637.2
2569.51	4652.02
2570.88	4641.77
2572.25	4650.2
2573.62	4653.58
2574.99	4640.54
2576.35	4643.64
2577.72	4649.73
2579.09	4661.29
2580.46	4655.74
2581.82	4632.98
2583.19	4606.84
2584.56	4620.03
2585.92	4603.31
2587.29	4635.05
2588.65	4622.44
2590.02	4605.45
2591.38	4619.32
2592.75	4601.13
2594.11	4601.73
2595.48	4636.85
2596.84	4609.14
2598.21	4578.73
2599.57	4592.51
2600.93	4578.26
2602.3	4577.94
2603.66	4559.51
2605.02	4573.6
2606.39	4560.79
2607.75	4587.99
2609.11	4550.91
2610.47	4578.28
2611.83	4564.87
2613.19	4553.97
2614.56	4566.01
2615.92	4543.02
2617.28	4564.89
2618.64	4527.93
2620	4519.01
2621.36	4531.2
2622.72	4540.8
2624.08	4535.39
2625.44	4531.05
2626.8	4524.16
2628.15	4502.4
2629.51	4487.34
2630.87	4520.33
2632.23	4497.79
2633.59	4469.17
2634.94	4479.15
2636.3	4499.12
2637.66	4482.97
2639.01	4482.65
2640.37	4483.12
2641.73	4465.06
2643.08	4455.59
2644.44	4488.36
2645.79	4458.04
2647.15	4454.72
2648.5	4452.61
2649.86	4440.72
2651.21	4469.54
2652.57	4457.64
2653.92	4425.69
2655.28	4419.62
2656.63	4427.73
2657.98	4420.63
2659.33	4407.63
2660.69	4439.57
2662.04	4437.19
2663.39	4425.76
2664.75	4407.53
2666.1	4435.13
2667.45	4421.47
2668.8	4429.25
2670.15	4397.29
2671.5	4398.36
2672.85	4419.11
2674.2	4406.2
2675.55	4412.68
2676.9	4356.39
2678.25	4406.83
2679.6	4395.02
2680.95	4395.14
2682.3	4378.32
2683.65	4386.91
2685	4362.79
2686.35	4387.06
2687.7	4368.13
2689.04	4367.3
2690.39	4401.48
2691.74	4377.49
2693.09	4363.26
2694.43	4354.64
2695.78	4368.93
2697.13	4326.49
2698.47	4347.37
2699.82	4345.92
2701.16	4341.49
2702.51	4366.69
2703.85	4355.83
2705.2	4352.81
2706.54	4344.34
2707.89	4347.45
2709.23	4341.25
2710.58	4326.18
2711.92	4352.66
2713.26	4363.56
2714.61	4342.23
2715.95	4328.04
2717.29	4318.99
2718.64	4308.76
2719.98	4341.94
2721.32	4307.38
2722.66	4321.15
2724	4298.44
2725.35	4302.15
2726.69	4317.38
2728.03	4303.92
2729.37	4301.59
2730.71	4308.75
2732.05	4300.96
2733.39	4302.16
2734.73	4293.93
2736.07	4257.39
2737.41	4264.18
2738.75	4257.14
2740.09	4247.56
2741.42	4249.68
2742.76	4239.48
2744.1	4221.95
2745.44	4209.58
2746.78	4227.98
2748.11	4203.32
2749.45	4188.18
2750.79	4230.29
2752.12	4201.69
2753.46	4183.55
2754.8	4181.15
2756.13	4164.43
2757.47	4155.77
2758.81	4149.89
2760.14	4166.82
2761.47	4191.62
2762.81	4171.71
2764.14	4159.25
2765.48	4135.59
2766.81	4181.54
2768.15	4149.63
2769.48	4172.03
2770.81	4134.17
2772.15	4156.85
2773.48	4120.54
2774.81	4132.93
2776.14	4128.22
2777.48	4114.03
2778.81	4114.55
2780.14	4120.17
2781.47	4101.66
2782.8	4089.8
2784.13	4102.14
2785.47	4085.29
2786.8	4060.33
2788.13	4099.97
2789.46	4088.49
2790.79	4091.48
2792.12	4075.38
2793.44	4083.25
2794.77	4063.98
2796.1	4085.61
2797.43	4069.67
2798.76	4073.05
2800.09	4039.06
2801.42	4079.88
2802.74	4068.74
2804.07	4054.79
2805.4	4043.97
2806.73	4049.03
2808.05	4049.73
2809.38	4074.47
2810.71	4068.58
2812.03	4076.22
2813.36	4036.88
2814.68	4062.1
2816.01	4046.69
2817.33	4072.2
2818.66	4052.64
2819.98	4055.45
2821.31	4074.11
2822.63	4061.57
2823.96	4060.53
2825.28	4066.04
2826.6	4075.02
2827.93	4083.16
2829.25	4100.73
2830.57	4104.73
2831.9	4103.17
2833.22	4103.47
2834.54	4154.36
2835.86	4145.16
2837.19	4252.13
2838.51	4247.63
2839.83	4288.76
2841.15	4397.47
2842.47	4467.36
2843.79	4550.52
2845.11	4605.87
2846.43	4688.94
2847.75	4762.38
2849.07	4768.87
2850.39	4786.35
2851.71	4795.29
2853.03	4784.77
2854.35	4762.36
2855.66	4719.71
2856.98	4720.53
2858.3	4705.37
2859.62	4667.2
2860.94	4685.16
2862.25	4650.29
2863.57	4624.22
2864.89	4643.6
2866.2	4662.44
2867.52	4690.75
2868.84	4723.83
2870.15	4731.25
2871.47	4747.29
2872.78	4753.32
2874.1	4809.44
2875.41	4772.07
2876.73	4792.84
2878.04	4824.46
2879.36	4849.18
2880.67	4859.54
2881.98	4871.93
2883.3	4888.9
2884.61	4924.33
2885.92	4908.83
2887.24	4940.41
2888.55	4948.2
2889.86	4979.63
2891.18	4989.56
2892.49	4964.16
2893.8	5022.11
2895.11	4982.16
2896.42	4996.1
2897.73	4975.95
2899.04	4990.59
2900.35	4961.24
2901.67	4988.25
2902.97	4968.27
2904.29	4942.09
2905.59	4956.39
2906.9	4943.97
2908.21	4931.63
2909.52	4943.7
2910.83	4931.15
2912.14	4980.98
2913.45	4961.76
2914.76	4965.27
2916.06	4980.05
2917.37	4949.01
2918.68	4946.59
2919.99	4935.54
2921.29	4937.4
2922.6	4961.33
2923.91	4963.41
2925.21	4988.55
2926.52	4957.53
2927.82	4974.02
2929.13	4970.57
2930.44	4975.46
2931.74	4963.98
2933.05	4966.44
2934.35	4944
2935.65	4945.44
2936.96	4909.9
2938.26	4871.74
2939.57	4851.9
2940.87	4823.6
2942.17	4766.75
2943.48	4726.05
2944.78	4662.15
2946.08	4619.76
2947.38	4585.4
2948.69	4549.24
2949.99	4493.21
2951.29	4489.24
2952.59	4496.14
2953.89	4444.17
2955.19	4459.96
2956.49	4407.42
2957.8	4389.74
2959.1	4382.74
2960.4	4366.25
2961.7	4331.5
2962.99	4323.93
2964.29	4304.92
2965.59	4264.39
2966.89	4256.43
2968.19	4212.02
2969.49	4216.73
2970.79	4183.91
2972.09	4164.95
2973.38	4158.04
2974.68	4127.13
2975.98	4120.63
2977.28	4133.94
2978.57	4086.82
2979.87	4100.12
2981.17	4067.24
2982.46	4051.8
2983.76	4037.3
2985.05	4022.15
2986.35	4006.68
2987.65	3987.12
2988.94	3997.72
2990.24	3981.74
2991.53	3953.69
2992.82	3982.25
2994.12	3960.96
2995.41	3957.24
2996.71	3923.63
2998	3908.69
2999.29	3918.11
3000.59	3907.59
3001.88	3930.69
3003.17	3905.78
3004.47	3905.28
3005.76	3903.95
3007.05	3897.42
3008.34	3876.76
3009.63	3872.91
3010.92	3845.8
3012.21	3845.59
3013.5	3840.5
3014.8	3867
3016.09	3825.01
3017.38	3803.78
3018.67	3839.42
3019.96	3839.22
3021.25	3824.5
3022.54	3810.08
3023.82	3816.61
3025.11	3805.45
3026.4	3837.99
3027.69	3822.47
3028.98	3828.08
3030.27	3816.72
3031.55	3801.94
3032.84	3827.64
3034.13	3809.36
3035.42	3808.64
3036.7	3824.46
3037.99	3814.86
3039.28	3829.95
3040.56	3861.6
3041.85	3859.11
3043.13	3842.9
3044.42	3841.02
3045.7	3839.5
3046.99	3860.08
3048.27	3856.43
3049.56	3878.06
3050.84	3878.75
3052.13	3877.87
3053.41	3891.48
3054.69	3900
3055.98	3912.79
3057.26	3904.03
3058.54	3931.36
3059.83	3920.98
3061.11	3917.81
3062.39	3934.01
3063.67	3942.38
3064.95	3967.64
3066.24	3993.23
3067.52	3947.41
3068.8	3948.71
3070.08	3959.29
3071.36	3946.58
3072.64	3970.8
3073.92	3982.33
3075.2	3997.21
3076.48	3990.72
3077.76	4007.59
3079.04	3984.2
3080.32	4014.22
3081.6	4014.18
3082.88	4033.11
3084.16	4047.44
3085.44	4051.49
3086.71	4058.09
3087.99	4061.96
3089.27	4105.42
3090.55	4096.21
3091.82	4102.19
3093.1	4091.91
3094.38	4103.79
3095.65	4112.14
3096.93	4126.37
3098.21	4119.24
3099.48	4159.84
3100.76	4163.56
3102.03	4197.63
3103.31	4194.23
3104.58	4230.43
3105.86	4230.43
3107.13	4231.88
3108.41	4237.18
3109.68	4269.65
3110.96	4257.29
3112.23	4293.82
3113.5	4282.07
3114.78	4331.22
3116.05	4343.28
3117.32	4332.2
3118.59	4376.72
3119.87	4397.79
3121.14	4350.25
3122.41	4409.79
3123.68	4384.06
3124.95	4423.94
3126.23	4443.08
3127.5	4460.15
3128.77	4492.6
3130.04	4497.45
3131.31	4528.7
3132.58	4525.62
3133.85	4567.84
3135.12	4569.15
3136.39	4583.71
3137.66	4606.33
3138.93	4583.56
3140.2	4622.17
3141.46	4640.74
3142.73	4638.49
3144	4676.13
3145.27	4671.19
3146.54	4686.97
3147.8	4722.48
3149.07	4736.21
3150.34	4741.27
3151.6	4762.28
3152.87	4793.35
3154.14	4782.26
3155.4	4835.41
3156.67	4844.45
3157.94	4850.97
3159.2	4909.7
3160.47	4909.06
3161.73	4894.89
3163	4924.2
3164.26	4908.15
3165.53	4947.8
3166.79	4956.62
3168.05	4943.48
3169.32	4967.99
3170.58	5005.71
3171.84	4979.42
3173.11	5017.7
3174.37	4998.46
3175.63	5014.1
3176.9	4989.33
3178.16	4994.16
3179.42	5012.04
3180.68	5019.76
3181.94	5028.04
3183.21	5036.08
3184.47	5039.75
3185.73	5059.9
3186.99	5023.8
3188.25	5058.28
3189.51	5069.96
3190.77	5060.65
3192.03	5066.04
3193.29	5081.6
3194.55	5069.42
3195.81	5052.85
3197.07	5049.9
3198.33	5063.98
3199.58	5065.89
3200.84	5086.56
3202.1	5094.76
3203.36	5097.13
3204.62	5114.54
3205.87	5093.8
3207.13	5094.02
3208.39	5069.99
3209.65	5117.2
3210.9	5103.2
3212.16	5092.03
3213.41	5069.3
3214.67	5064.77
3215.93	5060.65
3217.18	5068.1
3218.44	5046.23
3219.69	5055.54
3220.95	5087.49
3222.2	5068.78
3223.46	5054.35
3224.71	5071.32
3225.97	5088.1
3227.22	5065.24
3228.47	5053.49
3229.73	5058.2
3230.98	5052.8
3232.23	5036.84
3233.48	5031.83
3234.74	5042.47
3235.99	5029.02
3237.24	5033.04
3238.49	5041.66
3239.75	5009.75
3241	4998.06
3242.25	5010.93
3243.5	5008.07
3244.75	5009.41
3246	4999.46
3247.25	4993.04
3248.5	4970.82
3249.75	4977.19
3251	4950.78
3252.25	4954.37
3253.5	4967.6
3254.75	4934.98
3256	4942.25
3257.25	4920.85
3258.49	4918.87
3259.74	4899.91
3260.99	4907.15
3262.24	4900.1
3263.49	4889.57
3264.73	4880.22
3265.98	4877.54
3267.23	4878.45
3268.47	4876.63
3269.72	4877.33
3270.97	4871.73
3272.21	4863.4
3273.46	4846.25
3274.7	4841
3275.95	4832.96
3277.2	4828.43
3278.44	4821.85
3279.69	4806.19
3280.93	4817.25
3282.17	4791.68
3283.42	4817.76
3284.66	4816.91
3285.91	4779.78
3287.15	4785.98
3288.39	4777.11
3289.64	4751.15
3290.88	4765.54
3292.12	4762.41
3292.31	4757.43
3293.56	4744.65
3294.8	4756.08
3296.05	4764.64
3297.3	4740.83
3298.55	4766.75
3299.79	4732.01
3301.04	4728.5
3302.29	4745.64
3303.54	4712.52
3304.78	4721.93
3306.03	4720.39
3307.27	4693.12
3308.52	4723.46
3309.76	4725.72
3311.01	4727.38
3312.26	4728.52
3313.5	4712.61
3314.75	4702.72
3315.99	4683.92
3317.23	4699.21
3318.48	4702.83
3319.72	4711.07
3320.97	4681.67
3322.21	4696.21
3323.45	4711.03
3324.7	4692.22
3325.94	4693.94
3327.18	4677.32
3328.42	4663.52
3329.67	4689.41
3330.91	4687.83
3332.15	4676.63
3333.39	4706.82
3334.63	4693.27
3335.87	4666.95
3337.12	4679.48
3338.36	4672.94
3339.6	4690.58
3340.84	4672.74
3342.08	4651.07
3343.32	4635.5
3344.56	4670.17
3345.8	4671.76
3347.04	4655.32
3348.27	4649.92
3349.51	4659.53
3350.75	4646.93
3351.99	4641.33
3353.23	4626.51
3354.47	4643.19
3355.7	4647.1
3356.94	4626.75
3358.18	4654.58
3359.42	4646.54
3360.65	4635.85
3361.89	4643.75
3363.13	4602.92
3364.36	4633.89
3365.6	4611.64
3366.83	4647.58
3368.07	4642.25
3369.31	4628.15
3370.54	4629.89
3371.78	4638.57
3373.01	4638.98
3374.25	4633.16
3375.48	4644.48
3376.71	4667.47
3377.95	4617.86
3379.18	4629.47
3380.42	4628.93
3381.65	4635.57
3382.88	4618.59
3384.12	4613.31
3385.35	4601.73
3386.58	4596.69
3387.81	4613.67
3389.04	4644.01
3390.28	4600.25
3391.51	4593.68
3392.74	4598.49
3393.97	4611.92
3395.2	4622.8
3396.43	4600.67
3397.67	4569.58
3398.9	4579.62
3400.13	4596.71
3401.36	4608.62
3402.58	4597.32
3403.82	4550.53
3405.05	4606.32
3406.27	4577.65
3407.5	4568.2
3408.73	4555.11
3409.96	4530.66
3411.19	4567.94
3412.42	4537.28
3413.64	4538.96
3414.87	4515.53
3416.1	4548.42
3417.33	4540.71
3418.55	4498.89
3419.78	4522.3
3421.01	4505.09
3422.23	4495.41
3423.46	4490.39
3424.69	4457.23
3425.91	4481.06
3427.14	4470.81
3428.36	4450.73
3429.59	4445.42
3430.81	4456.89
3432.04	4431.84
3433.26	4427.77
3434.49	4411.05
3435.71	4398.06
3436.94	4389.71
3438.16	4376.94
3439.39	4358.62
3440.61	4356.05
3441.83	4370.41
3443.05	4320.17
3444.28	4325.04
3445.5	4301.34
3446.72	4303.74
3447.95	4322.46
3449.17	4288.13
3450.39	4303.77
3451.61	4266.62
3452.83	4264.42
3454.05	4260.17
3455.27	4244.78
3456.5	4240.96
3457.71	4210.11
3458.94	4186.39
3460.16	4174.27
3461.38	4185.44
3462.59	4148.51
3463.81	4167.17
3465.03	4121.21
3466.25	4112.39
3467.47	4084.49
3468.69	4087.36
3469.91	4096.65
3471.13	4078.35
3472.35	4040.02
3473.56	4055.28
3474.78	3979.19
3476	3982.84
3477.22	3972.62
3478.43	3951.11
3479.65	3949.52
3480.87	3924.7
3482.08	3930.48
3483.3	3890.17
3484.52	3892.78
3485.73	3861.88
3486.95	3864.44
3488.16	3820.55
3489.38	3789.51
3490.59	3818.39
3491.81	3790.37
3493.02	3784.43
3494.24	3752.6
3495.45	3726.94
3496.67	3711.78
3497.88	3688.94
3499.09	3672.16
