#Acq. time (s)=	10
#Accumulations=	10
#Range (cm-¹)=	400...3500
#Windows=	3
#Auto scanning=	Off
#Autofocus=	Off
#AutoExposure=	Off
#Spike filter=	Multiple accum.
#Delay time (s)=	0
#Binning=	1
#Readout mode=	Signal
#DeNoise=	Off
#ICS correction=	On
#Dark correction=	Off
#Inst. Process=	Off
#Detector Gain=	Best Dynamic Range
#Detector ADC=	45 kHz       
#Detector temperature (°C)=	-60.1
#Instrument=	LabRAM HR Evol
#Detector=	Syncerity OE
#Objective=	x50_VIS_LWD
#Grating=	600 (500nm)
#ND Filter=	50%
#Laser=	532nm_Edge
#Hole=	199.981
#Range=	Visible
#E-Cal_Neon=	0
#StageXY=	75x50mm Scan+
#StageZ=	Z motor
#X (µm)=	0
#Y (µm)=	0
#Z (µm)=	1167.5
#Spectral res.(cm-¹)=	12.8
#Full time(mm:ss)=	5:19
#AC=	Calibrated 2025-06-30 10:26
#Project=	
#Sample=	
#Site=	
#Title=	D_99
#Remark=	
#Date=	30.06.2025 16:50 (India Standard Time)
#Acquired=	30.06.2025 16:50:05 (India Standard Time)
#AxisType[0]=Intens
#AxisUnit[0]=Cnt
#AxisType[1]=Spectr
#AxisUnit[1]=1/cm
400.17	24791.8
401.945	24694.9
403.717	24659.6
405.491	24680
407.263	24677.9
409.036	24628.4
410.807	24653
412.58	24721.5
414.35	24703.8
416.122	24701
417.892	24659.7
419.663	24672.8
421.432	24673.5
423.203	24699.3
424.971	24615.7
426.741	24671.1
428.509	24645.1
430.276	24681.1
432.045	24619
433.812	24651.7
435.58	24697.5
437.346	24606.4
439.111	24647.8
440.879	24595.9
442.643	24532.4
444.408	24587.1
446.174	24547.8
447.938	24523.9
449.701	24465.6
451.467	24432
453.229	24461.4
454.992	24472.9
456.756	24452.7
458.518	24439.8
460.279	24412.3
462.043	24376.4
463.803	24367.4
465.564	24366.4
467.326	24345.5
469.086	24300.4
470.845	24283.2
472.604	24299.8
474.365	24230.6
476.123	24321.8
477.882	24267
479.639	24205
481.399	24214.2
483.156	24222.8
484.913	24288.9
486.669	24155.9
488.425	24165.3
490.183	24169.2
491.938	24181.8
493.693	24138.3
495.448	24130.5
497.202	24200.8
498.956	24177.2
500.712	24170.3
502.465	24278.1
504.218	24249.1
505.971	24181.6
507.723	24317.2
509.475	24270.4
511.227	24243.4
512.981	24256.4
514.732	24315.2
516.482	24232.4
518.233	24237.5
519.983	24181.5
521.732	24207
523.482	24115.1
525.231	24133
526.979	24062.9
528.728	24047.9
530.476	24039.8
532.223	24025.2
533.971	23946.9
535.718	23986.9
537.464	23924.1
539.211	24036.2
540.956	23885.7
542.702	23877.7
544.447	23758
546.192	23861.8
547.937	23836.3
549.681	23676.3
551.425	23812.4
553.169	23685.4
554.912	23815.5
556.655	23788.5
558.398	23691.6
560.14	23763.8
561.882	23733.5
563.624	23770.1
565.365	23724.2
567.106	23724.8
568.847	23742
570.585	23737.1
572.325	23696
574.065	23670.2
575.804	23734.9
577.543	23729.3
579.282	23740.6
581.02	23698.1
582.756	23742.5
584.494	23735.1
586.231	23695.6
587.968	23724.3
589.705	23788
591.441	23751.6
593.175	23748.7
594.911	23792.8
596.646	23809.2
598.381	23829.3
600.116	23787.4
601.848	23805
603.582	23787.4
605.316	23771.4
607.049	23718.1
608.78	23689
610.513	23653
612.245	23579.9
613.977	23585
615.707	23587.8
617.438	23498.7
619.17	23524.8
620.898	23486
622.629	23479.9
624.359	23339.7
626.086	23318.8
627.816	23355.5
629.545	23325.1
631.272	23229.4
633	23271.4
634.728	23286.8
636.454	23265.5
638.181	23259.6
639.908	23261.7
641.633	23320.2
643.36	23224.1
645.084	23134
646.81	23155
648.535	23061.5
650.258	23165.4
651.983	23090.4
653.705	23061.5
655.43	23126.6
657.153	23052.1
658.875	23101.9
660.598	23015.6
662.319	23041.8
664.041	22973.6
665.762	22985
667.483	23027.7
669.203	23003.3
670.924	22997.9
672.643	22931.1
674.364	22920.4
676.082	22925.3
677.802	22941
679.519	22943.4
681.238	22957.6
682.955	22947.1
684.674	22856.8
686.39	22954.8
688.106	22831.4
689.824	22949.4
691.539	22991.5
693.256	23007.1
694.971	22893.2
696.685	22936.4
698.401	22970.2
700.115	22965.7
701.83	22948.8
703.543	22950.8
705.256	22927.4
706.97	22872.6
708.682	22859.7
710.394	22832.7
712.107	22835.4
713.818	22871
715.529	22801.5
717.241	22843.9
718.952	22880.8
720.661	22954.2
722.373	22910.9
724.082	22914.7
725.791	22917
727.501	22753.3
729.209	22789.5
730.917	22800.3
732.625	22756.2
734.334	22752.8
736.041	22770.8
737.747	22739.3
739.453	22709.4
741.161	22687.6
742.867	22686.2
744.572	22624.5
746.277	22656.5
747.982	22665.7
749.688	22628.4
751.392	22685
753.096	22726.3
754.799	22720.7
756.502	22729.4
758.205	22718
759.909	22782.1
761.611	22720.2
763.313	22724.4
765.014	22728.2
766.715	22732.4
768.416	22759.1
770.116	22692.7
771.816	22763.3
773.516	22685.9
775.218	22723.1
776.917	22788.9
778.616	22754.6
780.314	22737.5
782.012	22695.4
783.71	22694.3
785.408	22742.5
787.105	22705.7
788.802	22689.1
790.498	22647.1
792.195	22681.2
793.891	22624.8
795.586	22699.5
797.281	22708.2
798.977	22701.2
800.671	22686.6
802.365	22742.3
804.06	22781.9
805.753	22746.8
807.447	22630.4
809.14	22725.5
810.832	22650.5
812.525	22654.9
814.217	22626.9
815.907	22732.7
817.598	22726.5
819.289	22807.7
820.98	22796.7
822.671	22866.6
824.361	22938.2
826.051	22976.1
827.74	22981.3
829.43	22999.1
831.117	23033.5
832.805	23010.7
834.494	22940.4
836.182	22999.6
837.869	23088.9
839.557	23109.9
841.242	23138.8
842.928	23198.9
844.615	23205.3
846.301	23279.9
847.987	23290.7
849.67	23245.4
851.355	23271.2
853.04	23282.6
854.724	23293.8
856.407	23273.1
858.091	23253.6
859.774	23475.9
861.457	23386.3
863.138	23378.4
864.821	23378.3
866.503	23439
868.183	23388.5
869.865	23382.8
871.546	23416.3
873.225	23462.1
874.906	23413
876.586	23463.9
878.264	23342.7
879.944	23242.4
881.624	23212
883.301	23174.3
884.98	23178.8
886.658	23195
888.334	23215.5
890.012	23161
891.688	23169.2
893.365	23121.3
895.042	23036.9
896.717	22915.8
898.393	22876.1
900.067	22763.5
901.743	22711.5
903.416	22668
905.091	22565.5
906.766	22481.1
908.438	22423.5
910.112	22432.5
911.784	22409
913.458	22425.7
915.129	22325.8
916.802	22317.7
918.472	22314.5
920.145	22344.7
921.815	22280.6
923.484	22237.1
925.156	22210.6
926.825	22124.2
928.495	22118.3
930.164	22068
931.834	21961.2
933.501	21998.6
935.171	21971.8
936.838	21907.2
938.505	21939.9
940.173	21944.6
941.84	21995.8
943.505	21953.3
945.173	21965.2
946.838	21948.8
948.505	21960
950.17	21954.5
951.834	21885.6
953.5	21922.7
955.164	21895.4
956.827	21862.9
958.492	21927.4
960.155	21917.5
961.818	21966.3
963.48	21971.8
965.144	21966.9
966.805	21922.1
968.467	21850.6
970.128	21834
971.79	21831
973.45	21742.4
975.11	21783.8
976.77	21645.8
978.432	21716.7
980.091	21644.8
981.749	21726.4
983.408	21668.5
985.068	21702.3
986.726	21740.1
988.383	21721.2
990.041	21715
991.698	21828.9
993.354	21817.1
995.012	22015.3
996.668	22033.5
998.324	22260.3
999.979	22459.1
1001.63	22614.7
1003.29	22823.7
1004.94	22763.3
1006.6	22641.8
1008.25	22468.4
1009.91	22378.4
1011.56	22266.6
1013.21	22133.2
1014.87	22108.5
1016.52	22071.9
1018.17	21967.1
1019.82	22014
1021.47	22060.1
1023.12	22011.5
1024.78	21931.9
1026.43	21766.4
1028.08	21807.4
1029.73	21750.4
1031.38	21769.1
1033.02	21750.7
1034.67	21729.3
1036.32	21683.2
1037.97	21700.8
1039.62	21708.7
1041.27	21597.5
1042.91	21699
1044.56	21657.8
1046.21	21639.5
1047.85	21608.3
1049.5	21628.6
1051.14	21651.6
1052.79	21698.5
1054.43	21741.7
1056.08	21869.4
1057.72	21959.5
1059.37	22022.4
1061.01	22239.1
1062.65	22230.3
1064.3	22269.7
1065.94	22189.7
1067.58	22174.5
1069.23	22182.2
1070.87	22039.1
1072.51	22143.8
1074.15	22232.4
1075.79	22256.3
1077.43	22356.5
1079.07	22443.8
1080.71	22282.6
1082.35	22343.8
1083.99	22281
1085.63	22266
1087.27	22147.1
1088.91	22062.1
1090.55	21968.3
1092.18	21845.1
1093.82	21712
1095.46	21582.8
1097.1	21450.3
1098.73	21384.1
1100.37	21274.4
1102	21153.1
1103.64	21063.8
1105.27	20960.7
1106.91	21078.6
1108.54	21038.2
1110.18	20993.2
1111.81	21089.7
1113.44	21163.4
1115.08	21222.1
1116.71	21368.7
1118.34	21399.7
1119.98	21468.3
1121.61	21488.5
1123.24	21524.4
1124.87	21486.6
1126.5	21382.5
1128.13	21309.2
1129.76	21124.9
1131.39	20963.7
1133.02	20866.1
1134.65	20873.6
1136.28	20772.1
1137.91	20711.5
1139.54	20789.1
1141.17	20866.3
1142.8	20969
1144.42	21110.9
1146.05	21250.6
1147.68	21522.7
1149.3	21793.9
1150.93	22208.7
1152.56	22678.5
1154.18	23067.1
1155.81	23291.3
1157.43	23365
1159.06	23021.2
1160.68	22471.4
1162.31	21888.2
1163.93	21359.6
1165.55	21014.9
1167.18	20753.7
1168.8	20583.1
1170.42	20531.3
1172.04	20392.6
1173.67	20358.7
1175.29	20325.2
1176.91	20210.8
1178.53	20162.2
1180.15	20115.4
1181.77	20065.9
1183.39	20125
1185.01	20178.7
1186.63	20179.8
1188.25	20227.8
1189.87	20207.1
1191.49	20262.6
1193.11	20198.4
1194.72	20153
1196.34	20071
1197.96	20043.3
1199.58	19963.7
1201.19	19868.2
1202.81	19839.8
1204.43	19728.2
1206.04	19733.2
1207.66	19762.2
1209.27	19781.2
1210.88	19798.6
1212.5	19730.6
1214.11	19675.8
1215.73	19642.8
1217.34	19668
1218.95	19513.3
1220.57	19449.4
1222.18	19421.8
1223.79	19442.3
1225.4	19506.1
1227.02	19463.5
1228.63	19450.8
1230.24	19460.5
1231.85	19503.4
1233.46	19494.8
1235.07	19490.2
1236.68	19464
1238.29	19501.9
1239.9	19502.4
1241.51	19667.3
1243.12	19714.8
1244.72	19756.8
1246.33	19775.6
1247.94	19862.4
1249.55	19805.6
1251.15	19855.4
1252.76	19874.6
1254.37	19921
1255.97	19966.8
1257.58	19948.6
1259.19	20071.5
1260.79	20011.9
1262.39	20105.9
1264	20102.9
1265.6	20150.6
1267.21	20210.1
1268.81	20145.2
1270.41	20076.4
1272.02	20066.3
1273.62	19959.7
1275.22	19972
1276.82	19955.3
1278.43	19906.2
1280.03	19895.3
1281.63	19942.1
1283.23	19870.3
1284.83	19974.5
1286.43	19933.2
1288.03	20083.8
1289.63	20120
1291.23	20211
1292.83	20374.8
1294.43	20569.9
1296.03	20833.3
1297.62	21104.7
1299.22	21277.2
1300.82	21383.2
1302.42	21424.7
1304.01	21239
1305.61	21260.4
1307.21	21047.6
1308.8	20843.1
1310.4	20622.8
1311.99	20477.6
1313.59	20293.2
1315.18	20126.1
1316.78	19936.1
1318.37	19760.1
1319.96	19647.7
1321.56	19554.4
1323.15	19462.8
1324.74	19286.4
1326.34	19209.4
1327.93	19167.7
1329.52	19056.7
1331.11	18964.7
1332.7	18978.3
1334.3	18918.9
1335.89	18827.3
1337.48	18878.9
1339.07	18882.5
1340.66	18812.2
1342.25	18779.4
1343.84	18720.5
1345.42	18740.1
1347.01	18718.6
1348.6	18674.7
1350.19	18614
1351.78	18633
1353.37	18582.1
1354.95	18547.8
1356.54	18497.5
1358.13	18509.6
1359.71	18377.6
1361.3	18446.4
1362.88	18357
1364.47	18395.6
1366.05	18392.9
1367.64	18333.9
1369.22	18360.2
1370.81	18311.8
1372.39	18264.5
1373.97	18193.1
1375.56	18042.7
1377.14	18022.6
1378.72	17964
1380.31	17929
1381.89	17863.9
1383.47	17817.9
1385.05	17845.2
1386.63	17805.6
1388.21	17848
1389.79	17848.4
1391.37	17804.5
1392.95	17814.4
1394.53	17770.3
1396.11	17733.3
1397.69	17729.7
1399.27	17777.9
1400.85	17763.8
1402.42	17760
1404	17747.9
1405.58	17754.8
1407.16	17757.4
1408.73	17798.1
1410.31	17835.3
1411.89	17856.4
1413.46	18003
1415.04	18013.7
1416.61	18156.5
1418.19	18246
1419.76	18316.6
1421.34	18470.4
1422.91	18412
1424.49	18622.8
1426.06	18754.1
1427.63	19016.6
1429.21	19393.4
1430.78	19879
1432.35	20426.9
1433.92	20854.8
1435.49	21338.2
1437.07	21753.6
1438.64	21953.5
1440.21	21906.1
1441.78	21820.5
1443.35	21721.8
1444.92	21576
1446.49	21451.3
1448.06	21239.2
1449.63	21180
1451.2	20964.9
1452.76	20844.4
1454.33	20691.4
1455.9	20618.9
1457.47	20496.4
1459.03	20341.6
1460.6	20121
1462.17	19906.3
1463.74	19679.7
1465.3	19417.6
1466.87	19076
1468.43	18952.1
1470	18710.7
1471.56	18471.6
1473.13	18208.7
1474.69	18000.5
1476.26	17835.4
1477.82	17685.7
1479.38	17508.2
1480.94	17396.1
1482.51	17338.3
1484.07	17315
1485.63	17223.2
1487.2	17153.6
1488.76	17127
1490.32	17134.6
1491.88	17101.6
1493.44	17112.5
1495	17178
1496.56	17257.6
1498.12	17206.8
1499.68	17252.7
1501.24	17322
1502.8	17344.5
1504.36	17492
1505.91	17593.3
1507.47	17738.9
1509.03	17928.4
1510.59	18192.3
1512.14	18504.9
1513.7	18689
1515.26	18922.2
1516.81	19288.5
1518.37	19435.9
1519.93	19558.4
1521.48	19614.5
1523.04	19555.4
1524.59	19498.7
1526.15	19247.1
1527.7	18876.2
1529.25	18522.7
1530.81	18117.5
1532.36	17728.3
1533.91	17405.5
1535.47	17037.4
1537.02	16837.4
1538.57	16733.5
1540.12	16566
1541.67	16484.7
1543.23	16413.1
1544.78	16313.2
1546.33	16335.5
1547.88	16294
1549.43	16218.7
1550.98	16139.7
1552.53	16108
1554.08	16081.5
1555.63	16154.5
1557.18	16160.7
1558.72	16039
1560.27	15997.2
1561.82	16042.3
1563.37	16022.5
1564.91	16011.3
1566.46	16014.1
1568.01	15986.9
1569.55	15916.9
1571.1	16010.8
1572.64	15997.8
1574.19	15955.6
1575.74	15931.6
1577.28	15971
1578.83	15964.1
1580.37	15892.3
1581.91	15901.1
1583.46	15898.5
1585	15863.5
1586.54	15912.4
1588.09	15869.6
1589.63	15851.4
1591.17	15877.1
1592.71	15855.1
1594.25	15878.6
1595.79	15870.7
1597.34	15885.3
1598.88	15828.5
1600.42	15868.1
1601.96	15850.2
1603.5	15852.4
1605.04	15822
1606.58	15802.6
1608.12	15832.2
1609.65	15792.4
1611.19	15739.2
1612.73	15711.3
1614.27	15703.1
1615.8	15678.6
1617.34	15744.4
1618.88	15674
1620.42	15656.4
1621.95	15628.2
1623.49	15636
1625.03	15623.7
1626.56	15637.4
1628.1	15664.7
1629.63	15668.6
1631.17	15707.4
1632.7	15712.8
1634.23	15783.6
1635.77	15771.6
1637.3	15761.5
1638.83	15811.2
1640.37	15868.5
1641.9	15908
1643.43	16013.2
1644.96	16124.1
1646.5	16387.3
1648.03	16610.8
1649.56	16933.2
1651.09	17184.8
1652.62	17331.6
1654.15	17422
1655.68	17315.1
1657.21	17152.6
1658.74	16891.1
1660.27	16605.5
1661.8	16296.1
1663.32	16197.1
1664.85	16005.1
1666.38	15965.4
1667.91	15809.4
1669.44	15792.2
1670.96	15741
1672.49	15528.7
1674.02	15472.2
1675.54	15398.4
1677.07	15281.1
1678.59	15197.7
1680.12	15141.4
1681.65	15041.5
1683.17	15071.5
1684.69	14980.4
1686.22	14914.5
1687.74	14813
1689.27	14847.2
1690.79	14774.2
1692.31	14768.1
1693.84	14714.8
1695.36	14664.2
1696.88	14613
1698.4	14617.6
1699.92	14545.4
1701.45	14500.3
1702.97	14480.3
1704.49	14406.6
1706.01	14470.1
1707.53	14365.6
1709.05	14418.6
1710.57	14356.9
1712.09	14368.2
1713.61	14280
1715.13	14343.7
1716.65	14266.2
1718.16	14264.9
1719.68	14252.3
1721.2	14344.6
1722.72	14272.3
1724.23	14258.3
1725.75	14304.9
1727.27	14289.3
1728.78	14350
1730.3	14382.9
1731.82	14448
1733.33	14435.7
1734.84	14579.1
1736.36	14615.7
1737.87	14712.7
1739.39	14793.1
1740.9	14819.3
1742.42	14888.2
1743.93	14880.2
1745.44	14894.3
1746.96	14887.4
1748.47	14892.6
1749.98	14858.7
1751.49	14780.7
1753	14656.7
1754.51	14519.1
1756.03	14355.9
1757.54	14312.2
1759.05	14154
1760.56	14067.5
1762.07	14041.4
1763.58	13914.2
1765.09	13824.2
1766.6	13790.1
1768.11	13770.7
1769.61	13702.4
1771.12	13709.3
1772.63	13798.6
1774.14	13670.6
1775.65	13654.2
1777.15	13620.3
1778.66	13632.2
1780.17	13609.5
1781.67	13645.2
1783.18	13565.3
1784.68	13551.4
1786.19	13582.6
1787.7	13602
1789.2	13552.9
1790.71	13530.5
1792.21	13457
1793.71	13467.5
1795.22	13528.9
1796.72	13412.5
1798.22	13449.8
1799.73	13326.1
1801.23	13397.2
1802.73	13353.4
1804.23	13379
1805.74	13332.9
1807.24	13351.2
1808.74	13333.5
1810.24	13348.2
1811.74	13316.8
1813.24	13293.1
1814.74	13296.6
1816.24	13305.9
1817.74	13277.6
1819.24	13248.9
1820.74	13203.8
1822.24	13220.1
1823.74	13208.8
1825.23	13213.8
1826.73	13221.1
1828.23	13198.9
1829.73	13121
1831.22	13106.6
1832.72	13086.7
1834.22	13108.2
1835.71	13101.1
1837.21	13101.8
1838.71	13065
1840.2	13066.7
1841.7	13116.3
1843.19	13034.6
1844.68	13091.3
1846.18	13047.5
1847.67	13009.3
1849.17	12999
1850.66	12975.6
1852.15	13004
1853.65	12944.4
1855.14	12987.7
1856.63	12978.3
1858.12	12933.6
1859.62	12912.8
1861.11	12898.1
1862.6	12897.2
1864.09	12919
1865.58	12877.8
1867.07	12870.8
1868.56	12822.7
1870.05	12816.9
1871.54	12801.4
1873.03	12765.3
1874.52	12815.6
1876.01	12787.2
1877.49	12759.3
1878.98	12744.7
1880.47	12694.1
1881.96	12694.2
1883.45	12701.3
1884.93	12657.6
1886.42	12642.9
1887.91	12650.8
1889.39	12665.3
1890.88	12640.6
1892.36	12577.7
1893.85	12576.9
1895.34	12620.9
1896.82	12559.6
1898.3	12518.4
1899.79	12497.1
1901.27	12419.2
1902.76	12425.3
1904.24	12382.1
1905.72	12357.8
1907.2	12337.3
1908.69	12313.7
1910.17	12254.1
1911.65	12175.7
1913.13	12138.8
1914.62	12168.1
1916.1	12079.1
1917.58	12030.8
1919.06	12004.3
1920.54	11946.5
1922.02	11928.6
1923.5	11893
1924.98	11840.1
1926.46	11817.7
1927.94	11800
1929.42	11736.4
1930.89	11698.1
1932.37	11703.4
1933.85	11706
1935.33	11645.8
1936.81	11569.7
1938.28	11573.6
1939.76	11520.3
1941.24	11493
1942.71	11445
1944.19	11383.1
1945.66	11400.2
1947.14	11312.5
1948.61	11311.3
1950.09	11245.7
1951.57	11246.9
1953.04	11161.1
1954.51	11125.5
1955.99	11062.9
1957.46	11042.1
1958.93	10989.3
1960.41	10996.3
1961.88	10976.1
1963.35	10963.5
1964.82	10895
1966.3	10878.1
1967.77	10830.6
1969.24	10801.1
1970.71	10793.6
1972.18	10746.6
1973.65	10691.7
1975.12	10728.7
1976.59	10655.8
1978.06	10623.6
1979.53	10626.7
1981	10555.9
1982.47	10568.4
1983.94	10554.6
1985.41	10493.5
1986.87	10467.1
1988.34	10450.3
1989.81	10384.2
1991.28	10367.5
1992.74	10305.9
1994.21	10278.4
1995.68	10270.5
1997.14	10218.2
1998.61	10163
2000.07	10160.7
2001.54	10106.3
2003.01	10106
2004.47	10051.3
2005.94	10048.8
2007.4	10022.4
2008.86	9983.22
2010.33	10007.1
2011.79	9958.03
2013.25	9940.12
2014.72	9924.28
2016.18	9879.27
2017.64	9854.97
2019.1	9836.59
2020.57	9812.74
2022.03	9784.42
2023.49	9762.51
2024.95	9694.24
2026.41	9680.2
2027.87	9679.65
2029.33	9653.83
2030.79	9623.78
2032.25	9608.48
2033.71	9608.38
2035.17	9578.34
2036.63	9565.15
2038.09	9546.37
2039.54	9516.82
2041	9508.1
2042.46	9489.27
2043.92	9412.67
2045.38	9401.72
2045.86	9408.53
2047.32	9430.74
2048.79	9401.99
2050.25	9378.9
2051.71	9400.64
2053.17	9381.2
2054.64	9365.18
2056.1	9355.6
2057.56	9336.73
2059.02	9346.21
2060.48	9317.21
2061.94	9319.57
2063.4	9297.58
2064.86	9305.5
2066.32	9322.4
2067.78	9291.84
2069.24	9275.38
2070.7	9277.65
2072.16	9221.63
2073.62	9274.38
2075.08	9246.54
2076.54	9226.68
2077.99	9213.46
2079.45	9235.42
2080.91	9207.66
2082.37	9192.69
2083.82	9228.32
2085.28	9191.75
2086.74	9195.14
2088.19	9208.92
2089.65	9145.31
2091.1	9174.99
2092.56	9090.52
2094.01	9108.43
2095.47	9051.79
2096.92	9084.88
2098.38	9089.74
2099.83	9118.41
2101.29	9057.77
2102.74	9083
2104.19	9066.75
2105.64	9060.92
2107.1	9099.03
2108.55	9048.83
2110	9016.55
2111.45	9043.83
2112.91	9029.42
2114.36	8976.87
2115.81	8980.79
2117.26	8958.35
2118.71	8964.35
2120.16	8965.3
2121.61	8952.95
2123.06	8951.65
2124.51	8916.16
2125.96	8939.5
2127.4	8890.21
2128.85	8899.84
2130.3	8899.03
2131.75	8880.44
2133.2	8841.75
2134.65	8873.68
2136.09	8861.16
2137.54	8894.9
2138.99	8847.58
2140.43	8853.95
2141.88	8852.33
2143.32	8851.76
2144.77	8862.23
2146.22	8802.78
2147.66	8766.69
2149.11	8811.55
2150.55	8803.24
2152	8791.14
2153.44	8774.27
2154.88	8796.77
2156.33	8784.15
2157.77	8778.17
2159.21	8740.62
2160.66	8736.54
2162.1	8740.82
2163.54	8742.91
2164.98	8732.98
2166.43	8726.16
2167.87	8730.48
2169.31	8708.96
2170.75	8707.06
2172.19	8703.59
2173.63	8657.33
2175.07	8672.07
2176.51	8685.83
2177.95	8666.15
2179.39	8675.96
2180.83	8624.71
2182.27	8617.84
2183.71	8626.08
2185.14	8609.65
2186.58	8620.1
2188.02	8601.49
2189.46	8606.23
2190.9	8592.27
2192.33	8613.07
2193.77	8587.77
2195.21	8545.23
2196.64	8564.88
2198.08	8512.92
2199.51	8545.31
2200.95	8544.87
2202.39	8529.24
2203.82	8477.17
2205.25	8497.99
2206.69	8527.62
2208.12	8502.62
2209.56	8430.37
2210.99	8473.14
2212.42	8452.59
2213.86	8390.68
2215.29	8400.78
2216.72	8421.33
2218.15	8399.11
2219.59	8407.81
2221.02	8396.15
2222.45	8356.39
2223.88	8363.9
2225.31	8342.28
2226.74	8375.49
2228.17	8325.76
2229.6	8340.29
2231.03	8308.93
2232.46	8300.11
2233.89	8274.56
2235.32	8269.62
2236.75	8266.12
2238.18	8214.93
2239.61	8269.49
2241.04	8249.2
2242.46	8207.48
2243.89	8227.11
2245.32	8170.71
2246.75	8202.96
2248.17	8190.53
2249.6	8154.01
2251.03	8147.73
2252.45	8155.78
2253.88	8149.89
2255.31	8123.62
2256.73	8085.28
2258.16	8107.96
2259.58	8072.53
2261	8070.18
2262.43	8008.63
2263.85	8040.48
2265.28	8010.84
2266.7	7979.81
2268.12	7977.71
2269.55	7977.35
2270.97	7940.95
2272.39	7973.03
2273.81	7971.46
2275.24	7922.19
2276.66	7922.37
2278.08	7908.3
2279.5	7905.89
2280.92	7887.3
2282.34	7887.41
2283.76	7868.63
2285.18	7845.19
2286.6	7843.95
2288.02	7824.34
2289.44	7845.57
2290.86	7808.85
2292.28	7787.79
2293.7	7778.75
2295.12	7789.37
2296.54	7784.92
2297.95	7799.46
2299.37	7765.11
2300.79	7757.33
2302.21	7765.36
2303.62	7718.96
2305.04	7687.85
2306.46	7690.97
2307.87	7664.06
2309.29	7661.84
2310.7	7698.83
2312.12	7667.56
2313.53	7681.68
2314.95	7643.2
2316.36	7617.44
2317.78	7595.39
2319.19	7628.78
2320.61	7610.9
2322.02	7582.7
2323.43	7638.59
2324.85	7634.84
2326.26	7656.74
2327.67	7751.01
2329.08	7820.53
2330.5	7863.41
2331.91	7744.31
2333.32	7585.45
2334.73	7515.93
2336.14	7484.9
2337.55	7454.3
2338.96	7445.18
2340.37	7443.81
2341.78	7509.69
2343.19	7413.62
2344.6	7429.11
2346.01	7403.22
2347.42	7361.08
2348.83	7380.17
2350.24	7372.58
2351.65	7309.78
2353.05	7343.4
2354.46	7317.54
2355.87	7321.26
2357.28	7304.31
2358.68	7277.64
2360.09	7278.71
2361.5	7262.13
2362.9	7296.91
2364.31	7259.03
2365.71	7256.04
2367.12	7253.62
2368.52	7199.33
2369.93	7244.88
2371.33	7235.91
2372.74	7182.81
2374.14	7173.13
2375.55	7203.21
2376.95	7167.07
2378.35	7129.78
2379.76	7183.79
2381.16	7138.96
2382.56	7143.29
2383.96	7122.36
2385.37	7115.8
2386.77	7112.64
2388.17	7084.38
2389.57	7115.22
2390.97	7109.63
2392.37	7046.33
2393.77	7065.19
2395.17	7054.15
2396.57	7045.94
2397.97	7090.24
2399.37	7004.42
2400.77	7032.85
2402.17	7028.45
2403.57	7003.06
2404.97	7007.91
2406.37	6987.69
2407.77	6991.13
2409.16	6974.61
2410.56	6974.27
2411.96	6936.11
2413.36	6991.75
2414.75	6938.92
2416.15	6963.28
2417.55	6930.66
2418.94	6872.07
2420.34	6870.1
2421.73	6922.42
2423.13	6893.75
2424.52	6861.01
2425.92	6870.38
2427.31	6853.46
2428.71	6893.19
2430.1	6825.07
2431.5	6840.29
2432.89	6848.5
2434.28	6854.67
2435.68	6858.29
2437.07	6815.49
2438.46	6835.47
2439.85	6805.71
2441.25	6806.84
2442.64	6758.83
2444.03	6771.51
2445.42	6762.08
2446.81	6771.9
2448.2	6778.26
2449.59	6764.46
2450.98	6744.57
2452.37	6697.86
2453.76	6747.75
2455.15	6716.75
2456.54	6709.6
2457.93	6729.17
2459.32	6676.44
2460.71	6701.09
2462.1	6653.69
2463.49	6695.47
2464.87	6667.36
2466.26	6653.01
2467.65	6626.06
2469.04	6654.77
2470.42	6602.95
2471.81	6624.41
2473.2	6593.01
2474.58	6617.1
2475.97	6580.91
2477.35	6589.21
2478.74	6549.72
2480.12	6570.31
2481.51	6556.78
2482.89	6534.92
2484.28	6563.62
2485.66	6569.56
2487.05	6519.73
2488.43	6539.53
2489.81	6513.27
2491.2	6516.84
2492.58	6493.93
2493.96	6475.97
2495.34	6470.92
2496.73	6471.94
2498.11	6495.9
2499.49	6435.66
2500.87	6435.83
2502.25	6411.24
2503.63	6460.4
2505.01	6425.66
2506.39	6402.95
2507.77	6412.28
2509.15	6383.3
2510.53	6423.57
2511.91	6390.73
2513.29	6368.23
2514.67	6374.25
2516.05	6368.6
2517.43	6356.6
2518.81	6321.3
2520.19	6354.44
2521.56	6355.88
2522.94	6336.72
2524.32	6356.93
2525.7	6337.11
2527.07	6319.73
2528.45	6313.34
2529.82	6278.93
2531.2	6267.17
2532.58	6255.29
2533.95	6280.06
2535.33	6248.77
2536.7	6284.3
2538.08	6267.68
2539.45	6248.17
2540.82	6242.68
2542.2	6229.71
2543.57	6238.52
2544.95	6198.98
2546.32	6201.37
2547.69	6172.08
2549.07	6165.19
2550.44	6152.98
2551.81	6128.98
2553.18	6175.69
2554.55	6144.19
2555.93	6162.69
2557.3	6157.98
2558.67	6147.99
2560.04	6130.73
2561.41	6121.75
2562.78	6120.72
2564.15	6106.67
2565.52	6094.27
2566.89	6084.89
2568.26	6061.04
2569.63	6092.86
2571	6102.75
2572.36	6071.64
2573.73	6059.98
2575.1	6054.86
2576.47	6089.77
2577.84	6071.34
2579.2	6068.04
2580.57	6045.18
2581.94	6059.62
2583.31	6027.33
2584.67	6019.03
2586.04	6000.52
2587.4	6062.48
2588.77	6001.71
2590.14	6012.48
2591.5	5992.7
2592.87	5978.02
2594.23	6000.47
2595.6	5998.37
2596.96	5986.52
2598.32	5995.85
2599.69	5992.24
2601.05	5964.14
2602.41	5950.79
2603.78	5984.94
2605.14	5982.35
2606.5	5958.16
2607.86	5958.44
2609.23	5925.71
2610.59	5994.99
2611.95	5939.74
2613.31	5900.87
2614.67	5884.41
2616.03	5898.38
2617.4	5921.95
2618.75	5900.15
2620.11	5911.52
2621.48	5898.27
2622.83	5892.62
2624.19	5904.28
2625.55	5864.31
2626.91	5864.77
2628.27	5882.9
2629.63	5855.4
2630.99	5846.37
2632.35	5821.67
2633.7	5857.43
2635.06	5826.19
2636.42	5808.41
2637.77	5826.78
2639.13	5827.41
2640.49	5754.46
2641.84	5805.47
2643.2	5831.53
2644.56	5808.88
2645.91	5799.35
2647.27	5778
2648.62	5844
2649.98	5786.39
2651.33	5793.1
2652.69	5808.24
2654.04	5778.09
2655.4	5755.63
2656.75	5751.99
2658.1	5782.24
2659.45	5732.53
2660.81	5744.87
2662.16	5729.19
2663.51	5758.85
2664.86	5723.9
2666.22	5783.42
2667.57	5733.55
2668.92	5725.11
2670.27	5756.94
2671.62	5720.93
2672.97	5718.86
2674.32	5707.24
2675.67	5713.65
2677.02	5712.02
2678.37	5686.39
2679.72	5692.9
2681.07	5676.1
2682.42	5686.32
2683.77	5666.56
2685.12	5688.31
2686.47	5677.51
2687.81	5635.29
2689.16	5633.24
2690.51	5663.48
2691.86	5641.25
2693.21	5641.31
2694.55	5607.05
2695.9	5605.47
2697.25	5614.4
2698.59	5596.12
2699.94	5615.9
2701.28	5637.34
2702.63	5631.06
2703.97	5618.83
2705.32	5631.2
2706.66	5636.77
2708.01	5625.44
2709.35	5605.15
2710.7	5613.31
2712.04	5609.65
2713.39	5602.88
2714.73	5591.79
2716.07	5613.95
2717.41	5614.16
2718.76	5591.29
2720.1	5628.98
2721.44	5602.57
2722.78	5582.72
2724.12	5587.89
2725.47	5576.51
2726.81	5579
2728.15	5558.94
2729.49	5559.24
2730.83	5571.31
2732.17	5539.02
2733.51	5554.45
2734.85	5525.16
2736.19	5485.47
2737.53	5482.08
2738.87	5482.73
2740.21	5485.93
2741.55	5450.51
2742.88	5427.66
2744.22	5425.91
2745.56	5409.47
2746.9	5398.33
2748.24	5385.15
2749.57	5409.82
2750.91	5357.31
2752.25	5362.14
2753.58	5343.29
2754.92	5353.92
2756.25	5310.7
2757.59	5338.24
2758.93	5334.2
2760.26	5290.02
2761.6	5280.27
2762.93	5335.35
2764.27	5317
2765.6	5304.23
2766.93	5279.41
2768.27	5271.95
2769.6	5261.3
2770.94	5244.87
2772.27	5242.46
2773.6	5281.51
2774.93	5229.81
2776.27	5231.9
2777.6	5231.69
2778.93	5213.76
2780.26	5183.79
2781.59	5212.73
2782.93	5191.89
2784.26	5185.14
2785.59	5154.82
2786.92	5187.05
2788.25	5153.78
2789.58	5179.38
2790.91	5152.45
2792.24	5151.43
2793.57	5176.04
2794.9	5170.71
2796.23	5168.35
2797.56	5157.72
2798.88	5191.46
2800.21	5173.85
2801.54	5119.62
2802.87	5173.17
2804.2	5143.98
2805.52	5124.89
2806.85	5095.9
2808.18	5120.11
2809.5	5146.48
2810.83	5123.71
2812.16	5125.24
2813.48	5151.49
2814.81	5150.58
2816.13	5183.35
2817.46	5146.87
2818.78	5138.38
2820.11	5166.24
2821.43	5137.01
2822.76	5162.97
2824.08	5162.46
2825.4	5166.81
2826.73	5183.13
2828.05	5239.39
2829.37	5234.02
2830.7	5243.47
2832.02	5283.24
2833.34	5321.53
2834.66	5334.71
2835.99	5421.85
2837.31	5465.88
2838.63	5559.08
2839.95	5658.71
2841.27	5776.78
2842.59	5972.92
2843.91	6171.39
2845.23	6407.34
2846.55	6703.9
2847.87	6943.12
2849.19	7191.28
2850.51	7352.38
2851.83	7454.69
2853.15	7419.48
2854.47	7394.78
2855.79	7324.29
2857.11	7208.36
2858.43	7159.05
2859.74	7086.72
2861.06	6991.71
2862.38	6968.32
2863.69	6938.16
2865.01	6858.52
2866.33	6834.47
2867.65	6854.85
2868.96	6868.74
2870.28	6885.65
2871.59	6941.66
2872.91	6993.57
2874.22	7052.27
2875.54	7104.98
2876.85	7096.42
2878.17	7093.7
2879.48	7118.84
2880.8	7146.58
2882.11	7195.45
2883.42	7244.15
2884.74	7283.42
2886.05	7299.65
2887.36	7352.01
2888.68	7376.92
2889.99	7421.11
2891.3	7409.59
2892.61	7437
2893.93	7406.68
2895.24	7386.55
2896.55	7403.15
2897.86	7423.38
2899.17	7430.03
2900.48	7466.53
2901.79	7395.27
2903.1	7389.16
2904.41	7387.43
2905.72	7360.49
2907.03	7365.64
2908.34	7346.18
2909.65	7326.35
2910.96	7363.01
2912.27	7319.28
2913.57	7248.49
2914.88	7279.57
2916.19	7315.39
2917.5	7279.17
2918.81	7264.58
2920.11	7264.81
2921.42	7267.49
2922.73	7290.32
2924.03	7252.99
2925.34	7324.59
2926.64	7271.39
2927.95	7306.45
2929.26	7294.9
2930.56	7276.71
2931.87	7295.83
2933.17	7272.97
2934.48	7249.06
2935.78	7209.95
2937.09	7184.75
2938.39	7094.42
2939.69	7032.18
2941	6990.56
2942.3	6876.39
2943.6	6707.4
2944.91	6596.9
2946.21	6440
2947.51	6370.93
2948.81	6329.76
2950.12	6215.7
2951.42	6132.86
2952.72	6111.42
2954.02	6085.37
2955.32	6088.76
2956.62	6050.86
2957.92	5974.43
2959.22	5977.85
2960.52	5967.62
2961.82	5859.19
2963.12	5869.2
2964.42	5822.52
2965.72	5788.32
2967.02	5742.17
2968.32	5652.98
2969.62	5631.67
2970.92	5569
2972.21	5568.9
2973.51	5468.39
2974.81	5470.74
2976.11	5424.76
2977.4	5383.45
2978.7	5331.81
2980	5286.59
2981.29	5303.21
2982.59	5261.01
2983.89	5228.59
2985.18	5191.53
2986.48	5137.56
2987.77	5141.06
2989.07	5105.78
2990.36	5098.33
2991.66	5055.1
2992.95	5056.07
2994.25	5006.96
2995.54	5014.16
2996.84	5015.55
2998.13	4985.35
2999.42	4984.98
3000.72	5012.6
3002.01	4969.8
3003.3	4988.27
3004.59	4959.58
3005.89	4973.13
3007.18	4951.57
3008.47	4927.73
3009.76	4905.26
3011.05	4920.68
3012.34	4903.69
3013.63	4830.02
3014.93	4847.04
3016.22	4860.65
3017.5	4808.99
3018.8	4809.34
3020.09	4810.05
3021.38	4792.59
3022.67	4778.35
3023.95	4769.51
3025.24	4732.82
3026.53	4741.97
3027.82	4726.22
3029.11	4723.91
3030.4	4729.64
3031.68	4698.81
3032.97	4724.1
3034.26	4721.31
3035.54	4718.58
3036.83	4720.05
3038.12	4684.92
3039.4	4716.55
3040.69	4723.85
3041.98	4717.54
3043.26	4727.21
3044.55	4709.33
3045.83	4747.06
3047.12	4752.76
3048.4	4753.34
3049.69	4747.98
3050.97	4747.62
3052.26	4728.66
3053.54	4778.96
3054.82	4765.33
3056.11	4778.71
3057.39	4776.53
3058.67	4792.9
3059.96	4809.86
3061.24	4803.29
3062.52	4799.75
3063.8	4819.44
3065.09	4806.53
3066.37	4821.26
3067.65	4822.85
3068.93	4830.35
3070.21	4831.41
3071.49	4807.66
3072.77	4801.35
3074.05	4820.9
3075.33	4808.72
3076.61	4816.02
3077.89	4849.05
3079.17	4852.03
3080.45	4823.85
3081.73	4855.11
3083.01	4851.71
3084.29	4850.97
3085.57	4853.04
3086.84	4896.77
3088.12	4888.71
3089.4	4908.37
3090.68	4889.99
3091.95	4890.05
3093.23	4881.01
3094.51	4919.9
3095.79	4919.24
3097.06	4927.11
3098.34	4931.29
3099.61	4965.75
3100.89	4957.02
3102.17	4949.69
3103.44	4955.15
3104.72	5037.48
3105.99	5011.46
3107.27	5026.01
3108.54	5016.34
3109.81	5078.61
3111.09	5082.36
3112.36	5074.78
3113.63	5057.28
3114.91	5117.33
3116.18	5100.17
3117.46	5139.23
3118.73	5128.14
3120	5149.09
3121.27	5213.83
3122.54	5155.3
3123.82	5204.5
3125.09	5237.1
3126.36	5259.65
3127.63	5249.67
3128.9	5275.23
3130.17	5298.53
3131.44	5312.62
3132.71	5330.41
3133.98	5328.54
3135.25	5347.44
3136.52	5344.07
3137.79	5382.82
3139.06	5411.02
3140.33	5411.86
3141.6	5418.33
3142.86	5418.91
3144.13	5441.09
3145.4	5428.72
3146.67	5482.52
3147.94	5464.88
3149.2	5538.38
3150.47	5544.37
3151.74	5571.71
3153	5588.34
3154.27	5567.42
3155.54	5623.32
3156.8	5656.56
3158.07	5630.84
3159.34	5668.66
3160.6	5668.69
3161.86	5664.61
3163.13	5705.13
3164.4	5680.58
3165.66	5743.6
3166.92	5777.32
3168.19	5748.71
3169.45	5759.15
3170.72	5782.21
3171.98	5783.17
3173.24	5840.56
3174.5	5816.29
3175.77	5768.25
3177.03	5826.88
3178.29	5802.34
3179.56	5776.43
3180.82	5837.43
3182.08	5807.35
3183.34	5806.78
3184.6	5828.25
3185.86	5807.72
3187.12	5869.2
3188.38	5876.01
3189.64	5869.08
3190.9	5846.66
3192.16	5854.41
3193.42	5876.64
3194.68	5857.33
3195.94	5842.87
3197.2	5850.39
3198.46	5848.1
3199.72	5871.32
3200.98	5876.64
3202.24	5862.54
3203.49	5884.68
3204.75	5892.91
3206.01	5862.97
3207.27	5868.67
3208.52	5855.98
3209.78	5861.85
3211.04	5887.42
3212.29	5856.31
3213.55	5848.78
3214.81	5845.28
3216.06	5840.92
3217.32	5843.23
3218.57	5828.34
3219.83	5837.16
3221.08	5860.53
3222.34	5830.01
3223.59	5857.11
3224.85	5818.69
3226.1	5836.02
3227.35	5816.43
3228.61	5833.34
3229.86	5834.4
3231.11	5803.36
3232.37	5817.12
3233.62	5800
3234.87	5804.52
3236.12	5804.95
3237.38	5790.74
3238.63	5792.53
3239.88	5787.02
3241.13	5778.53
3242.38	5787.32
3243.63	5785.72
3244.89	5754.39
3246.14	5753.53
3247.39	5740.76
3248.64	5732.97
3249.89	5721.5
3251.14	5740.92
3252.39	5711.84
3253.64	5711.8
3254.88	5700.91
3256.13	5697.84
3257.38	5677.16
3258.63	5665.35
3259.88	5648.19
3261.13	5647.8
3262.37	5653.18
3263.62	5647.12
3264.87	5610.94
3266.12	5609.76
3267.36	5623.56
3268.61	5626.96
3269.86	5620.92
3271.1	5610.16
3272.35	5599.71
3273.6	5600.59
3274.84	5583.58
3276.09	5575
3277.33	5577.04
3278.58	5558.05
3279.82	5553.67
3281.07	5543.57
3282.31	5535.38
3283.56	5533.92
3284.8	5523.21
3286.04	5534.12
3287.29	5522.83
3288.53	5505.28
3289.77	5510.12
3291.02	5502.51
3292.26	5498.38
3292.9	5501.9
3294.15	5477.48
3295.39	5481.29
3296.64	5465.8
3297.89	5458.9
3299.14	5486.89
3300.38	5470.19
3301.63	5464.47
3302.88	5457.03
3304.12	5465.94
3305.37	5415.87
3306.62	5433.26
3307.86	5433.27
3309.11	5411.89
3310.35	5435.23
3311.6	5444.2
3312.84	5432.85
3314.09	5396.19
3315.34	5413.44
3316.58	5410.32
3317.82	5396.47
3319.07	5403.2
3320.31	5387.91
3321.56	5377.63
3322.8	5375.33
3324.04	5409.2
3325.29	5409.97
3326.53	5414
3327.77	5374.41
3329.01	5381.83
3330.25	5391.94
3331.5	5369.01
3332.74	5390.66
3333.98	5365.74
3335.22	5411.56
3336.46	5354.74
3337.7	5370.81
3338.94	5365.38
3340.19	5368.48
3341.42	5359.47
3342.67	5356.6
3343.9	5319.82
3345.15	5325.27
3346.38	5323.73
3347.62	5302.53
3348.86	5321.64
3350.1	5323.4
3351.34	5323.57
3352.58	5324.72
3353.82	5267.4
3355.06	5307.83
3356.29	5309.16
3357.53	5287.3
3358.77	5306.66
3360	5309.04
3361.24	5303.65
3362.48	5309.8
3363.71	5329.64
3364.95	5291.84
3366.19	5298.77
3367.42	5301.3
3368.66	5287.94
3369.89	5317.31
3371.13	5287.98
3372.36	5279.15
3373.6	5284.69
3374.83	5307.82
3376.07	5286.29
3377.3	5288.13
3378.54	5259.07
3379.77	5251.78
3381	5272.01
3382.24	5279.8
3383.47	5251.02
3384.7	5260.98
3385.94	5253.91
3387.17	5252.84
3388.4	5234.81
3389.63	5237.75
3390.87	5250.8
3392.1	5219.34
3393.33	5274.28
3394.56	5241.57
3395.79	5245.55
3397.02	5228.98
3398.25	5241.44
3399.48	5233.19
3400.71	5244.48
3401.94	5225.25
3403.17	5204.77
3404.4	5198.52
3405.63	5189.07
3406.86	5186.87
3408.09	5191.52
3409.32	5194.84
3410.55	5212.32
3411.78	5180.32
3413	5204.75
3414.23	5159.98
3415.46	5200.39
3416.69	5119.26
3417.92	5173.93
3419.14	5117.47
3420.37	5154.22
3421.6	5124.2
3422.82	5134.38
3424.05	5130.86
3425.27	5108.47
3426.5	5087.18
3427.73	5071.38
3428.95	5058.24
3430.18	5087.07
3431.4	5071.12
3432.63	5034.59
3433.85	5062.83
3435.08	5070.54
3436.3	5055.89
3437.53	5054.04
3438.75	5025.54
3439.97	4995.48
3441.2	4985.74
3442.42	4963.77
3443.64	4952.69
3444.86	4959.48
3446.09	4951.19
3447.31	4947.75
3448.53	4925.83
3449.75	4927.93
3450.98	4907.47
3452.2	4872.41
3453.42	4878.01
3454.64	4872.99
3455.86	4872.9
3457.08	4831.79
3458.3	4860.55
3459.52	4828.88
3460.74	4820.62
3461.96	4816.88
3463.18	4796.65
3464.4	4790.14
3465.62	4771.17
3466.84	4755.74
3468.06	4760.59
3469.28	4742.15
3470.5	4709.31
3471.72	4708.58
3472.93	4716.57
3474.15	4671.43
3475.37	4651.69
3476.59	4647.38
3477.8	4625.1
3479.02	4608.09
3480.24	4587.36
3481.45	4571.26
3482.67	4538.17
3483.89	4512.12
3485.1	4545.03
3486.32	4512.94
3487.53	4492.79
3488.75	4470.07
3489.96	4462.62
3491.18	4473.09
3492.39	4427.25
3493.61	4418.78
3494.82	4385.51
3496.04	4387.12
3497.25	4387.32
3498.47	4346.89
3499.68	4354.77
