#Acq. time (s)=	10
#Accumulations=	10
#Range (cm-¹)=	400...3500
#Windows=	3
#Auto scanning=	Off
#Autofocus=	Off
#AutoExposure=	Off
#Spike filter=	Multiple accum.
#Delay time (s)=	0
#Binning=	1
#Readout mode=	Signal
#DeNoise=	Off
#ICS correction=	On
#Dark correction=	Off
#Inst. Process=	Off
#Detector Gain=	Best Dynamic Range
#Detector ADC=	45 kHz       
#Detector temperature (°C)=	-60.1
#Instrument=	LabRAM HR Evol
#Detector=	Syncerity OE
#Objective=	x50_VIS_LWD
#Grating=	600 (500nm)
#ND Filter=	50%
#Laser=	532nm_Edge
#Hole=	199.981
#Range=	Visible
#E-Cal_Neon=	0
#StageXY=	75x50mm Scan+
#StageZ=	Z motor
#X (µm)=	0
#Y (µm)=	0
#Z (µm)=	697.5
#Spectral res.(cm-¹)=	12.8
#Full time(mm:ss)=	5:19
#AC=	Calibrated 2025-06-30 10:26
#Project=	
#Sample=	
#Site=	
#Title=	D_99
#Remark=	
#Date=	30.06.2025 11:31 (India Standard Time)
#Acquired=	30.06.2025 11:31:53 (India Standard Time)
#AxisType[0]=Intens
#AxisUnit[0]=Cnt
#AxisType[1]=Spectr
#AxisUnit[1]=1/cm
400.17	20966
401.945	20800.5
403.717	20842.1
405.491	20805
407.263	20806.8
409.036	20865.6
410.807	20809.9
412.58	20803.1
414.35	20808.3
416.122	20786.3
417.892	20824.5
419.663	20806.7
421.432	20785
423.203	20763.2
424.971	20790.5
426.741	20797.1
428.509	20742.1
430.276	20739.3
432.045	20754.7
433.812	20795.9
435.58	20769.2
437.346	20761.9
439.111	20699
440.879	20661.7
442.643	20721.2
444.408	20670.2
446.174	20656.6
447.938	20607.3
449.701	20610.9
451.467	20508.4
453.229	20603.6
454.992	20610.7
456.756	20565.2
458.518	20503.4
460.279	20482.7
462.043	20437.9
463.803	20435.3
465.564	20405.9
467.326	20444.5
469.086	20361.5
470.845	20397.2
472.604	20372
474.365	20423.6
476.123	20331
477.882	20338.1
479.639	20295.4
481.399	20320
483.156	20295.6
484.913	20311
486.669	20318.6
488.425	20318.4
490.183	20274.7
491.938	20257.6
493.693	20255.2
495.448	20223
497.202	20237.6
498.956	20290.9
500.712	20238.1
502.465	20291.7
504.218	20361.2
505.971	20300
507.723	20312.8
509.475	20282.5
511.227	20348.7
512.981	20364.1
514.732	20369.9
516.482	20344.9
518.233	20290.1
519.983	20224.3
521.732	20221.2
523.482	20205.2
525.231	20152.4
526.979	20167.1
528.728	20101.9
530.476	20143.2
532.223	20142.9
533.971	20036.9
535.718	20047.3
537.464	19988.1
539.211	20030.4
540.956	19902.6
542.702	19920.5
544.447	19905
546.192	19854
547.937	19866.7
549.681	19848.4
551.425	19832.7
553.169	19806.2
554.912	19861.4
556.655	19789.3
558.398	19753.5
560.14	19803.1
561.882	19770.8
563.624	19773.7
565.365	19737.4
567.106	19783.8
568.847	19721.2
570.585	19805.5
572.325	19795.9
574.065	19783.2
575.804	19795.8
577.543	19754.1
579.282	19883.1
581.02	19783.7
582.756	19828.6
584.494	19853.9
586.231	19848.1
587.968	19832.6
589.705	19862.4
591.441	19894.8
593.175	19898.2
594.911	19848.8
596.646	19846.5
598.381	19857.4
600.116	19814.1
601.848	19899.2
603.582	19929.7
605.316	19937.5
607.049	19891.7
608.78	19899.5
610.513	19850.1
612.245	19777.6
613.977	19687.2
615.707	19650
617.438	19649
619.17	19632.2
620.898	19628.2
622.629	19549
624.359	19481.7
626.086	19448.2
627.816	19418
629.545	19339
631.272	19415.1
633	19383.3
634.728	19394.2
636.454	19380.9
638.181	19400.3
639.908	19345.9
641.633	19406.9
643.36	19307.6
645.084	19309.1
646.81	19278.3
648.535	19282.6
650.258	19244.3
651.983	19173.5
653.705	19204.8
655.43	19248.6
657.153	19148.8
658.875	19182.1
660.598	19058.9
662.319	19126.1
664.041	19067.8
665.762	19120.7
667.483	19052.6
669.203	19125.3
670.924	19049.8
672.643	19109.5
674.364	19051.5
676.082	19059.1
677.802	19068.5
679.519	19028.3
681.238	18984.1
682.955	19064.2
684.674	19002.4
686.39	19016.8
688.106	19031.8
689.824	19047.8
691.539	19071.1
693.256	19085.5
694.971	19073.5
696.685	19031
698.401	19007.9
700.115	19057.1
701.83	19027.7
703.543	19024
705.256	19015.6
706.97	19038
708.682	19014.2
710.394	19003.8
712.107	18995.1
713.818	18986.9
715.529	18978.9
717.241	19002.2
718.952	19065
720.661	19095.8
722.373	19037.5
724.082	18998.4
725.791	19072.2
727.501	19028.7
729.209	18950.8
730.917	18921.8
732.625	18944.7
734.334	18970.4
736.041	18946.3
737.747	18912
739.453	18897.3
741.161	18796.4
742.867	18883
744.572	18861.6
746.277	18766.5
747.982	18824.3
749.688	18853.7
751.392	18894.6
753.096	18834.2
754.799	18856.7
756.502	18799.9
758.205	18884.5
759.909	18898.4
761.611	18864.4
763.313	18871.9
765.014	18870.8
766.715	18870.3
768.416	18881
770.116	18920.2
771.816	18882.3
773.516	18877.7
775.218	18926.9
776.917	18939.8
778.616	18884.7
780.314	18855.6
782.012	18928.6
783.71	18852.1
785.408	18899.7
787.105	18860.4
788.802	18875.2
790.498	18918.3
792.195	18846.1
793.891	18840.1
795.586	18833.8
797.281	18875
798.977	18936.3
800.671	18873
802.365	18939.8
804.06	19009.2
805.753	19011.5
807.447	19003.3
809.14	18971.1
810.832	18959.8
812.525	18941.6
814.217	18986.4
815.907	19037.5
817.598	19036.3
819.289	19121.9
820.98	19129.9
822.671	19151
824.361	19285.7
826.051	19341.6
827.74	19402.5
829.43	19362.2
831.117	19368.7
832.805	19464.8
834.494	19531.1
836.182	19470.4
837.869	19493
839.557	19498.7
841.242	19636.6
842.928	19640.3
844.615	19687.6
846.301	19690.2
847.987	19728.6
849.67	19711.9
851.355	19724.4
853.04	19724.6
854.724	19698.4
856.407	19742.8
858.091	19718.3
859.774	19860.8
861.457	19839.3
863.138	19951.8
864.821	19897.9
866.503	19983.9
868.183	19971.4
869.865	19948.4
871.546	19994.1
873.225	19998.2
874.906	19906.8
876.586	19979.3
878.264	19834
879.944	19745.6
881.624	19766
883.301	19703.6
884.98	19744.9
886.658	19751.9
888.334	19817.7
890.012	19740.6
891.688	19680
893.365	19575.3
895.042	19465.1
896.717	19347.5
898.393	19334.2
900.067	19190.7
901.743	19098.6
903.416	19093.2
905.091	19034.3
906.766	18943.3
908.438	18959.8
910.112	18907.1
911.784	18837
913.458	18880.5
915.129	18909.1
916.802	18848.7
918.472	18879.3
920.145	18856.6
921.815	18796.4
923.484	18816.3
925.156	18714.3
926.825	18662.3
928.495	18600
930.164	18567.6
931.834	18435.2
933.501	18420
935.171	18418.3
936.838	18369.8
938.505	18380.5
940.173	18433.2
941.84	18329
943.505	18439.6
945.173	18405
946.838	18383.4
948.505	18417
950.17	18414
951.834	18426.1
953.5	18444.5
955.164	18437.1
956.827	18382.5
958.492	18397.7
960.155	18453.5
961.818	18470
963.48	18415.5
965.144	18420.8
966.805	18412.9
968.467	18354.4
970.128	18335.6
971.79	18287.1
973.45	18222.8
975.11	18229
976.77	18144.2
978.432	18097.5
980.091	18108.4
981.749	18140.2
983.408	18120.6
985.068	18153.6
986.726	18138.3
988.383	18181.3
990.041	18251.6
991.698	18250.5
993.354	18306.9
995.012	18436.5
996.668	18653.2
998.324	18830.1
999.979	19045.9
1001.63	19372.8
1003.29	19466.9
1004.94	19483.3
1006.6	19380.4
1008.25	19217.5
1009.91	19028.2
1011.56	18887.2
1013.21	18717.2
1014.87	18705.2
1016.52	18631.5
1018.17	18603.8
1019.82	18583.3
1021.47	18492.5
1023.12	18497.4
1024.78	18413
1026.43	18359.2
1028.08	18340.8
1029.73	18347.6
1031.38	18341.7
1033.02	18288.7
1034.67	18267.4
1036.32	18224
1037.97	18226.4
1039.62	18234.9
1041.27	18256.6
1042.91	18181.7
1044.56	18154.5
1046.21	18170.9
1047.85	18190.7
1049.5	18209.2
1051.14	18324.3
1052.79	18353
1054.43	18436.3
1056.08	18606.1
1057.72	18776
1059.37	19053
1061.01	19251.2
1062.65	19366.2
1064.3	19397.7
1065.94	19260
1067.58	19045.2
1069.23	18879.4
1070.87	18948.7
1072.51	19027.8
1074.15	19047.8
1075.79	19086.9
1077.43	19132.5
1079.07	19187.3
1080.71	19183.3
1082.35	19116.7
1083.99	19033.3
1085.63	19020
1087.27	18882.3
1088.91	18852
1090.55	18734.1
1092.18	18627.6
1093.82	18435.3
1095.46	18267
1097.1	18195.2
1098.73	18019.8
1100.37	17955.1
1102	17813.7
1103.64	17816.8
1105.27	17747
1106.91	17665.3
1108.54	17629.3
1110.18	17644
1111.81	17754.4
1113.44	17769.3
1115.08	17897.3
1116.71	17959
1118.34	18117.2
1119.98	18180.8
1121.61	18153.9
1123.24	18293.1
1124.87	18348.4
1126.5	18382.2
1128.13	18243.5
1129.76	18047.7
1131.39	17823.7
1133.02	17714
1134.65	17544.2
1136.28	17402.9
1137.91	17371.8
1139.54	17419.4
1141.17	17531.9
1142.8	17661.5
1144.42	17886.9
1146.05	18082.1
1147.68	18414.8
1149.3	18887.3
1150.93	19406.8
1152.56	20127
1154.18	20543.2
1155.81	20940.6
1157.43	20968.5
1159.06	20550.8
1160.68	19822.9
1162.31	19020.8
1163.93	18322.8
1165.55	17830.9
1167.18	17527.9
1168.8	17330.9
1170.42	17221.7
1172.04	17182.3
1173.67	17080.1
1175.29	17057.8
1176.91	17002.4
1178.53	16841
1180.15	16872.1
1181.77	16868.7
1183.39	16920.5
1185.01	16972.3
1186.63	16991
1188.25	16971.3
1189.87	17000
1191.49	16999.1
1193.11	17040.3
1194.72	16958.3
1196.34	16870.6
1197.96	16729
1199.58	16688.8
1201.19	16577.1
1202.81	16575.4
1204.43	16406
1206.04	16398.3
1207.66	16419.9
1209.27	16397.5
1210.88	16414.2
1212.5	16442
1214.11	16317.9
1215.73	16293.8
1217.34	16196.4
1218.95	16150.7
1220.57	16110.7
1222.18	16033
1223.79	16060.9
1225.4	16066.7
1227.02	16047.9
1228.63	16061.7
1230.24	16080.4
1231.85	16086.2
1233.46	16106.5
1235.07	16107.8
1236.68	16118.8
1238.29	16122.7
1239.9	16197.1
1241.51	16302.6
1243.12	16360.3
1244.72	16404.8
1246.33	16423.4
1247.94	16506.7
1249.55	16557.9
1251.15	16583.3
1252.76	16636.3
1254.37	16709.6
1255.97	16759.8
1257.58	16805.4
1259.19	16844
1260.79	16919.3
1262.39	16942.8
1264	16959.3
1265.6	17029
1267.21	17091.1
1268.81	17017.5
1270.41	16912.9
1272.02	16946.4
1273.62	16851
1275.22	16783.1
1276.82	16767.1
1278.43	16762.7
1280.03	16802.9
1281.63	16820.8
1283.23	16795.3
1284.83	16885.2
1286.43	16946.8
1288.03	17005.5
1289.63	17295.7
1291.23	17576.7
1292.83	18025.3
1294.43	18363
1296.03	18761.6
1297.62	18990
1299.22	19105.4
1300.82	19081.6
1302.42	19013.4
1304.01	18807
1305.61	18637.6
1307.21	18422
1308.8	18103.9
1310.4	17816.2
1311.99	17579.5
1313.59	17294.1
1315.18	17043.4
1316.78	16819.1
1318.37	16594.1
1319.96	16444.1
1321.56	16319.4
1323.15	16209
1324.74	16039.2
1326.34	15940.6
1327.93	15817.6
1329.52	15757.5
1331.11	15676.1
1332.7	15633.1
1334.3	15577.3
1335.89	15500.4
1337.48	15467.3
1339.07	15464.3
1340.66	15465.1
1342.25	15465.2
1343.84	15374.9
1345.42	15341.1
1347.01	15322.4
1348.6	15277.4
1350.19	15310.4
1351.78	15296.1
1353.37	15287.1
1354.95	15251.6
1356.54	15143.5
1358.13	15148.2
1359.71	15125.9
1361.3	15085.6
1362.88	15100.7
1364.47	15144.6
1366.05	15105.1
1367.64	15061.3
1369.22	15083.5
1370.81	15009.3
1372.39	15003.5
1373.97	14930.3
1375.56	14807.2
1377.14	14705.4
1378.72	14664.7
1380.31	14651.2
1381.89	14548.1
1383.47	14496.4
1385.05	14530.7
1386.63	14510
1388.21	14553
1389.79	14536.6
1391.37	14516.5
1392.95	14476.7
1394.53	14493.3
1396.11	14392
1397.69	14428.4
1399.27	14503.9
1400.85	14492.9
1402.42	14538.2
1404	14517.4
1405.58	14490.8
1407.16	14560.5
1408.73	14585.6
1410.31	14764.5
1411.89	14863.1
1413.46	14960.9
1415.04	15092.1
1416.61	15182.2
1418.19	15302.4
1419.76	15424.1
1421.34	15494.9
1422.91	15617.5
1424.49	15810.6
1426.06	15995
1427.63	16424.6
1429.21	16963.1
1430.78	17643.7
1432.35	18483.4
1433.92	19209.3
1435.49	19885.9
1437.07	20346.3
1438.64	20619.7
1440.21	20647.8
1441.78	20467.6
1443.35	20209
1444.92	19971.5
1446.49	19731.6
1448.06	19501.2
1449.63	19289.4
1451.2	19078.6
1452.76	18967.5
1454.33	18785.1
1455.9	18652.8
1457.47	18430.4
1459.03	18188.2
1460.6	17926.7
1462.17	17626.5
1463.74	17248.9
1465.3	16940.7
1466.87	16603.7
1468.43	16293.5
1470	15954.1
1471.56	15650.9
1473.13	15265.6
1474.69	15061.1
1476.26	14876.4
1477.82	14710.4
1479.38	14546.6
1480.94	14375.5
1482.51	14318.4
1484.07	14289.2
1485.63	14217.1
1487.2	14089.8
1488.76	14111
1490.32	14099.4
1491.88	14079.1
1493.44	14082.7
1495	14144.5
1496.56	14173.8
1498.12	14187.2
1499.68	14243.6
1501.24	14301.4
1502.8	14446
1504.36	14520.9
1505.91	14727.6
1507.47	14953.9
1509.03	15248.1
1510.59	15504.9
1512.14	15890.1
1513.7	16254.2
1515.26	16640.1
1516.81	16972.3
1518.37	17262.5
1519.93	17538.7
1521.48	17625.4
1523.04	17662.4
1524.59	17423.1
1526.15	17089.1
1527.7	16763.9
1529.25	16227.8
1530.81	15694.9
1532.36	15140.4
1533.91	14698.2
1535.47	14347.1
1537.02	14026
1538.57	13813.9
1540.12	13681
1541.67	13547.5
1543.23	13395.5
1544.78	13291
1546.33	13236.5
1547.88	13138.6
1549.43	13121.3
1550.98	13057
1552.53	13008
1554.08	12998.4
1555.63	13006.5
1557.18	13019.2
1558.72	12933.7
1560.27	12887.1
1561.82	12923
1563.37	12839.3
1564.91	12855.1
1566.46	12832.3
1568.01	12839.2
1569.55	12823.8
1571.1	12861.2
1572.64	12815.1
1574.19	12837.6
1575.74	12813.1
1577.28	12794.6
1578.83	12813.6
1580.37	12765.7
1581.91	12768.7
1583.46	12782.3
1585	12739.4
1586.54	12753
1588.09	12736.6
1589.63	12749
1591.17	12731.4
1592.71	12754.1
1594.25	12742.1
1595.79	12736.8
1597.34	12799.2
1598.88	12697
1600.42	12748.5
1601.96	12727
1603.5	12742.8
1605.04	12713.5
1606.58	12640
1608.12	12652.4
1609.65	12659.1
1611.19	12577.7
1612.73	12584.1
1614.27	12582.7
1615.8	12562.7
1617.34	12503.6
1618.88	12523.3
1620.42	12513.8
1621.95	12528.6
1623.49	12527.1
1625.03	12573.2
1626.56	12554.1
1628.1	12626.6
1629.63	12636.4
1631.17	12629.7
1632.7	12676
1634.23	12713.1
1635.77	12794.8
1637.3	12789
1638.83	12833.3
1640.37	12930.9
1641.9	13056.1
1643.43	13175.5
1644.96	13411.1
1646.5	13737
1648.03	14036.9
1649.56	14488.6
1651.09	14762.6
1652.62	15077.5
1654.15	15089.3
1655.68	14885.2
1657.21	14657.9
1658.74	14263.3
1660.27	13913.6
1661.8	13568
1663.32	13303.2
1664.85	13145.1
1666.38	13024.4
1667.91	13017.7
1669.44	12930.9
1670.96	12782.1
1672.49	12594.1
1674.02	12486.8
1675.54	12388.9
1677.07	12287.2
1678.59	12199.1
1680.12	12070.1
1681.65	12081.9
1683.17	12008.8
1684.69	11922.7
1686.22	11891.7
1687.74	11817.5
1689.27	11842.3
1690.79	11802.3
1692.31	11807.3
1693.84	11737.4
1695.36	11677.3
1696.88	11661.8
1698.4	11674.6
1699.92	11603.8
1701.45	11506
1702.97	11520.5
1704.49	11537.3
1706.01	11483.1
1707.53	11420.6
1709.05	11471.9
1710.57	11495.4
1712.09	11404.1
1713.61	11394.6
1715.13	11408.2
1716.65	11378.7
1718.16	11383.8
1719.68	11403.3
1721.2	11381
1722.72	11399.9
1724.23	11461.1
1725.75	11529.5
1727.27	11603
1728.78	11590.1
1730.3	11682.5
1731.82	11729.4
1733.33	11798.3
1734.84	11880.7
1736.36	11974.5
1737.87	12104
1739.39	12230.7
1740.9	12311.2
1742.42	12370.8
1743.93	12291.4
1745.44	12318.7
1746.96	12334.1
1748.47	12241.5
1749.98	12163
1751.49	12093.4
1753	11946.7
1754.51	11804.9
1756.03	11638.5
1757.54	11495
1759.05	11364.8
1760.56	11286.1
1762.07	11182.3
1763.58	11089.1
1765.09	11019.1
1766.6	11008.6
1768.11	10926.1
1769.61	10892.3
1771.12	10857.9
1772.63	10876.6
1774.14	10833.1
1775.65	10828.2
1777.15	10839.7
1778.66	10795.4
1780.17	10827.8
1781.67	10799.8
1783.18	10723
1784.68	10733.5
1786.19	10760.8
1787.7	10771.8
1789.2	10735.2
1790.71	10667.5
1792.21	10680.4
1793.71	10700.9
1795.22	10712.1
1796.72	10672.8
1798.22	10662.5
1799.73	10639.8
1801.23	10611.1
1802.73	10626.6
1804.23	10607.9
1805.74	10624.8
1807.24	10575.5
1808.74	10531
1810.24	10588.7
1811.74	10539.7
1813.24	10494.4
1814.74	10511.6
1816.24	10524.6
1817.74	10510.3
1819.24	10476.3
1820.74	10447.8
1822.24	10490.1
1823.74	10414
1825.23	10435.1
1826.73	10411.8
1828.23	10388.8
1829.73	10424.8
1831.22	10470.8
1832.72	10394.7
1834.22	10364.6
1835.71	10393.3
1837.21	10346.9
1838.71	10382.3
1840.2	10357.7
1841.7	10362.5
1843.19	10370.8
1844.68	10371.4
1846.18	10344.5
1847.67	10339.3
1849.17	10285
1850.66	10306.9
1852.15	10239.1
1853.65	10298.9
1855.14	10231.9
1856.63	10244.8
1858.12	10223.1
1859.62	10189.6
1861.11	10204.4
1862.6	10223.7
1864.09	10204.9
1865.58	10159.4
1867.07	10199.1
1868.56	10169.8
1870.05	10165.9
1871.54	10173.3
1873.03	10121.9
1874.52	10108.3
1876.01	10126.6
1877.49	10143.3
1878.98	10105.6
1880.47	10091.3
1881.96	10065.7
1883.45	10050.9
1884.93	10043
1886.42	10020.3
1887.91	10009.8
1889.39	9991.8
1890.88	9976.27
1892.36	9992.95
1893.85	9926.13
1895.34	9976.55
1896.82	9919.81
1898.3	9952.13
1899.79	9863.7
1901.27	9893.83
1902.76	9844.94
1904.24	9767.56
1905.72	9797.94
1907.2	9716.62
1908.69	9677.32
1910.17	9688.78
1911.65	9646.45
1913.13	9627.33
1914.62	9615.59
1916.1	9543.07
1917.58	9526.75
1919.06	9487.31
1920.54	9476.15
1922.02	9439.73
1923.5	9438.67
1924.98	9413.23
1926.46	9372.88
1927.94	9346.82
1929.42	9311.43
1930.89	9290.29
1932.37	9286.49
1933.85	9274.75
1935.33	9235.15
1936.81	9176.33
1938.28	9157.24
1939.76	9105.97
1941.24	9095.84
1942.71	9064.99
1944.19	9074.25
1945.66	9052.05
1947.14	8980.83
1948.61	8984.19
1950.09	8958.14
1951.57	8912.76
1953.04	8884.33
1954.51	8844.46
1955.99	8836.35
1957.46	8828.8
1958.93	8768.95
1960.41	8745.12
1961.88	8715.31
1963.35	8699.06
1964.82	8714.48
1966.3	8654.65
1967.77	8637.32
1969.24	8596.12
1970.71	8609.3
1972.18	8555.56
1973.65	8573.68
1975.12	8560.86
1976.59	8515.03
1978.06	8489.38
1979.53	8453.12
1981	8424.37
1982.47	8416.5
1983.94	8395.03
1985.41	8405.58
1986.87	8373.24
1988.34	8350.61
1989.81	8291.16
1991.28	8288.88
1992.74	8244.8
1994.21	8244.95
1995.68	8207.31
1997.14	8179.18
1998.61	8174.36
2000.07	8120.45
2001.54	8112.52
2003.01	8111.57
2004.47	8081.54
2005.94	8079.81
2007.4	8072.35
2008.86	8042.8
2010.33	8001.91
2011.79	8006.94
2013.25	8009.85
2014.72	7971.44
2016.18	7946.95
2017.64	7941.96
2019.1	7901.51
2020.57	7902
2022.03	7869.85
2023.49	7855.51
2024.95	7827.07
2026.41	7823.36
2027.87	7787.73
2029.33	7791.03
2030.79	7779.61
2032.25	7779.98
2033.71	7766.06
2035.17	7747.65
2036.63	7729.59
2038.09	7713.58
2039.54	7679.39
2041	7668.92
2042.46	7663.32
2043.92	7649.9
2045.38	7651.47
2045.86	7651.53
2047.32	7629.24
2048.79	7603.72
2050.25	7644.71
2051.71	7598.78
2053.17	7608.51
2054.64	7581
2056.1	7598.27
2057.56	7573.28
2059.02	7569.09
2060.48	7546.23
2061.94	7543.65
2063.4	7555.21
2064.86	7570.99
2066.32	7543.9
2067.78	7540.36
2069.24	7512.98
2070.7	7512.5
2072.16	7504.31
2073.62	7507.7
2075.08	7490.52
2076.54	7490.35
2077.99	7477.99
2079.45	7469.76
2080.91	7460.91
2082.37	7458.64
2083.82	7456.48
2085.28	7411.66
2086.74	7447.44
2088.19	7422.33
2089.65	7395.8
2091.1	7417.88
2092.56	7404.99
2094.01	7400.79
2095.47	7363.8
2096.92	7385.4
2098.38	7406
2099.83	7363.26
2101.29	7375.88
2102.74	7331.8
2104.19	7354.31
2105.64	7337.35
2107.1	7306.54
2108.55	7338.77
2110	7322.17
2111.45	7308.05
2112.91	7286.1
2114.36	7301.77
2115.81	7302.28
2117.26	7270.76
2118.71	7281.43
2120.16	7249.89
2121.61	7269.12
2123.06	7262.98
2124.51	7243.6
2125.96	7233.02
2127.4	7241.89
2128.85	7190.38
2130.3	7236.67
2131.75	7210.16
2133.2	7224.04
2134.65	7228.79
2136.09	7209.62
2137.54	7185.32
2138.99	7192.63
2140.43	7199.79
2141.88	7192.89
2143.32	7169.22
2144.77	7162.18
2146.22	7145.61
2147.66	7150.91
2149.11	7145.2
2150.55	7125.3
2152	7163.86
2153.44	7101.02
2154.88	7142.56
2156.33	7104.13
2157.77	7100.21
2159.21	7121.16
2160.66	7064.88
2162.1	7118.37
2163.54	7116.46
2164.98	7095.21
2166.43	7092.57
2167.87	7092.73
2169.31	7107.49
2170.75	7078.35
2172.19	7062.53
2173.63	7040.47
2175.07	7052
2176.51	7021.38
2177.95	7029.94
2179.39	7024.05
2180.83	7057.84
2182.27	7038.51
2183.71	7042.06
2185.14	7029.61
2186.58	7024.49
2188.02	6981.17
2189.46	6986.44
2190.9	6985.58
2192.33	6956.48
2193.77	6962.88
2195.21	6979.59
2196.64	6943.42
2198.08	6964.31
2199.51	6940.3
2200.95	6929.53
2202.39	6911.98
2203.82	6900.76
2205.25	6911.77
2206.69	6902.53
2208.12	6904.61
2209.56	6853.9
2210.99	6854.27
2212.42	6837.39
2213.86	6847.42
2215.29	6821.23
2216.72	6794.65
2218.15	6789.73
2219.59	6769.38
2221.02	6745.15
2222.45	6751.39
2223.88	6793.37
2225.31	6742.6
2226.74	6758.81
2228.17	6720.49
2229.6	6693.57
2231.03	6733.38
2232.46	6735.87
2233.89	6694.03
2235.32	6688.57
2236.75	6695.49
2238.18	6682.45
2239.61	6662.14
2241.04	6659.35
2242.46	6645.02
2243.89	6647.21
2245.32	6659.5
2246.75	6597.58
2248.17	6596.78
2249.6	6646.26
2251.03	6625.15
2252.45	6547.31
2253.88	6582.03
2255.31	6601.62
2256.73	6568.4
2258.16	6548.65
2259.58	6510.71
2261	6489.57
2262.43	6506.07
2263.85	6463.44
2265.28	6450.21
2266.7	6443.01
2268.12	6483.74
2269.55	6426.06
2270.97	6425.57
2272.39	6428.67
2273.81	6401.22
2275.24	6409.85
2276.66	6411.93
2278.08	6421.72
2279.5	6356.41
2280.92	6366.08
2282.34	6328.89
2283.76	6346.64
2285.18	6334.58
2286.6	6303.8
2288.02	6343.7
2289.44	6332.09
2290.86	6326.49
2292.28	6313.68
2293.7	6300.4
2295.12	6300.04
2296.54	6258.93
2297.95	6269.84
2299.37	6277.47
2300.79	6270.94
2302.21	6238.9
2303.62	6208.06
2305.04	6246.92
2306.46	6241.79
2307.87	6214.84
2309.29	6186.19
2310.7	6226.74
2312.12	6211.56
2313.53	6183.43
2314.95	6197.33
2316.36	6178.16
2317.78	6134.13
2319.19	6141.73
2320.61	6125.01
2322.02	6150.55
2323.43	6140.85
2324.85	6156.89
2326.26	6201.35
2327.67	6256.59
2329.08	6374.97
2330.5	6387.47
2331.91	6255.01
2333.32	6103.59
2334.73	6058.16
2336.14	6018.46
2337.55	6032.58
2338.96	5995.83
2340.37	6013.01
2341.78	5986.94
2343.19	5996.38
2344.6	5960.81
2346.01	5948.39
2347.42	5980.77
2348.83	5971.87
2350.24	5926.5
2351.65	5923.8
2353.05	5921.4
2354.46	5844.7
2355.87	5888.61
2357.28	5884.7
2358.68	5853.44
2360.09	5857.39
2361.5	5819.45
2362.9	5816.85
2364.31	5811.82
2365.71	5818.54
2367.12	5818.85
2368.52	5825.74
2369.93	5767.33
2371.33	5793.66
2372.74	5787.61
2374.14	5739.6
2375.55	5791.24
2376.95	5764.98
2378.35	5720.85
2379.76	5746.7
2381.16	5717.55
2382.56	5725.4
2383.96	5741.84
2385.37	5736.39
2386.77	5741.64
2388.17	5715.95
2389.57	5695.4
2390.97	5713.19
2392.37	5679.95
2393.77	5646.64
2395.17	5669.89
2396.57	5649.47
2397.97	5658.87
2399.37	5623.12
2400.77	5637.93
2402.17	5630.99
2403.57	5627.46
2404.97	5631.63
2406.37	5588.38
2407.77	5572.54
2409.16	5605.96
2410.56	5582.17
2411.96	5556.71
2413.36	5564.58
2414.75	5556.28
2416.15	5542.01
2417.55	5544.08
2418.94	5559.08
2420.34	5570.82
2421.73	5537.52
2423.13	5506.24
2424.52	5532.1
2425.92	5494.17
2427.31	5507.21
2428.71	5501.28
2430.1	5471.04
2431.5	5468.3
2432.89	5490.9
2434.28	5489.73
2435.68	5481.5
2437.07	5464.91
2438.46	5459.66
2439.85	5464.4
2441.25	5426.11
2442.64	5412.1
2444.03	5423.95
2445.42	5428.07
2446.81	5420.08
2448.2	5390.47
2449.59	5443.59
2450.98	5374.56
2452.37	5397.57
2453.76	5354.92
2455.15	5382.28
2456.54	5398.87
2457.93	5354.42
2459.32	5354.34
2460.71	5357.96
2462.1	5326.71
2463.49	5315.73
2464.87	5322.65
2466.26	5305.03
2467.65	5298.13
2469.04	5278.55
2470.42	5318.54
2471.81	5313.66
2473.2	5280
2474.58	5235.74
2475.97	5262.96
2477.35	5253.92
2478.74	5267.69
2480.12	5222.39
2481.51	5260.35
2482.89	5242.77
2484.28	5229.74
2485.66	5215.51
2487.05	5214.45
2488.43	5219.1
2489.81	5209.99
2491.2	5200.17
2492.58	5174.38
2493.96	5171.61
2495.34	5173.41
2496.73	5217.74
2498.11	5158.51
2499.49	5153.07
2500.87	5161.8
2502.25	5143.37
2503.63	5131.59
2505.01	5097.72
2506.39	5122.56
2507.77	5095.48
2509.15	5130.35
2510.53	5119.6
2511.91	5090.67
2513.29	5082.97
2514.67	5067.78
2516.05	5094.11
2517.43	5059.86
2518.81	5079.55
2520.19	5068.27
2521.56	5055.08
2522.94	5063.01
2524.32	5042.37
2525.7	5046.23
2527.07	5047.28
2528.45	5045.45
2529.82	5035.33
2531.2	5041.18
2532.58	5020.53
2533.95	5012.25
2535.33	5016.08
2536.7	5008.48
2538.08	4988.93
2539.45	5005.95
2540.82	4992.55
2542.2	4953.41
2543.57	4945.57
2544.95	4960.4
2546.32	4921.12
2547.69	4956.44
2549.07	4923.14
2550.44	4917.44
2551.81	4906.09
2553.18	4897.05
2554.55	4919.85
2555.93	4957.89
2557.3	4936.36
2558.67	4915.19
2560.04	4908.9
2561.41	4895.35
2562.78	4887.67
2564.15	4874.52
2565.52	4911.55
2566.89	4858.23
2568.26	4859.23
2569.63	4858.74
2571	4837.83
2572.36	4860.93
2573.73	4868.82
2575.1	4864.11
2576.47	4850.22
2577.84	4865.1
2579.2	4805.53
2580.57	4834.76
2581.94	4858.78
2583.31	4877.68
2584.67	4855
2586.04	4837.65
2587.4	4837.52
2588.77	4836.65
2590.14	4858.37
2591.5	4865.07
2592.87	4815.44
2594.23	4861.52
2595.6	4833.68
2596.96	4832.06
2598.32	4817.3
2599.69	4839.39
2601.05	4800.01
2602.41	4829.11
2603.78	4812.65
2605.14	4808.94
2606.5	4810.05
2607.86	4816.03
2609.23	4791.62
2610.59	4782.17
2611.95	4803.08
2613.31	4770.48
2614.67	4759.04
2616.03	4789.96
2617.4	4800.2
2618.75	4785.72
2620.11	4733.79
2621.48	4751.8
2622.83	4777.6
2624.19	4739.7
2625.55	4769.64
2626.91	4768.76
2628.27	4716.88
2629.63	4746.07
2630.99	4754.07
2632.35	4736.78
2633.7	4738.27
2635.06	4699.69
2636.42	4736.4
2637.77	4724.91
2639.13	4749.49
2640.49	4711.4
2641.84	4726.28
2643.2	4681
2644.56	4716.7
2645.91	4728.69
2647.27	4737.31
2648.62	4714.01
2649.98	4723.06
2651.33	4730.01
2652.69	4717.52
2654.04	4715.73
2655.4	4723.21
2656.75	4729.03
2658.1	4719.16
2659.45	4740.58
2660.81	4726.1
2662.16	4708.3
2663.51	4716.02
2664.86	4730.9
2666.22	4743.47
2667.57	4740.34
2668.92	4746.13
2670.27	4763.7
2671.62	4739.94
2672.97	4734.77
2674.32	4769.44
2675.67	4744.56
2677.02	4729.32
2678.37	4738.4
2679.72	4708.01
2681.07	4705.87
2682.42	4717.76
2683.77	4701.5
2685.12	4687.13
2686.47	4709.75
2687.81	4683.82
2689.16	4696.34
2690.51	4694.95
2691.86	4680.67
2693.21	4691.46
2694.55	4694.75
2695.9	4685.69
2697.25	4689.88
2698.59	4700.27
2699.94	4708.12
2701.28	4702.78
2702.63	4736.19
2703.97	4765.9
2705.32	4777.43
2706.66	4821.14
2708.01	4795.69
2709.35	4810.21
2710.7	4818.72
2712.04	4867.3
2713.39	4889.85
2714.73	4880.73
2716.07	4911.02
2717.41	4906.21
2718.76	4908.73
2720.1	4946.6
2721.44	4930.96
2722.78	4991.45
2724.12	4949.64
2725.47	4962.56
2726.81	4966.24
2728.15	4966.97
2729.49	4952.47
2730.83	4923.31
2732.17	4899.25
2733.51	4874.42
2734.85	4824.32
2736.19	4796.6
2737.53	4737.15
2738.87	4731.1
2740.21	4694.24
2741.55	4578.27
2742.88	4596.54
2744.22	4578.41
2745.56	4539.22
2746.9	4514.23
2748.24	4471.49
2749.57	4473.19
2750.91	4447.76
2752.25	4410.09
2753.58	4384.53
2754.92	4378.37
2756.25	4363.72
2757.59	4325.87
2758.93	4318.1
2760.26	4317.99
2761.6	4326.57
2762.93	4313.87
2764.27	4288.92
2765.6	4231.18
2766.93	4293.9
2768.27	4265.44
2769.6	4265.39
2770.94	4297.35
2772.27	4234.63
2773.6	4229.77
2774.93	4234.33
2776.27	4223.68
2777.6	4221.41
2778.93	4224.45
2780.26	4190.46
2781.59	4220.74
2782.93	4241.64
2784.26	4212.86
2785.59	4205.13
2786.92	4204.15
2788.25	4210.24
2789.58	4198.9
2790.91	4229.71
2792.24	4219.48
2793.57	4229.56
2794.9	4215.34
2796.23	4260.68
2797.56	4243.2
2798.88	4233.96
2800.21	4260.93
2801.54	4276.4
2802.87	4270.01
2804.2	4270.34
2805.52	4236.78
2806.85	4266.97
2808.18	4261.35
2809.5	4311.24
2810.83	4299.81
2812.16	4342.84
2813.48	4332.4
2814.81	4363.28
2816.13	4393.73
2817.46	4419
2818.78	4454.06
2820.11	4482.76
2821.43	4514.77
2822.76	4560.44
2824.08	4641.83
2825.4	4667.01
2826.73	4769.92
2828.05	4831.69
2829.37	4949.03
2830.7	5066.44
2832.02	5240.1
2833.34	5399.86
2834.66	5601.97
2835.99	5838.66
2837.31	6205.19
2838.63	6587.31
2839.95	7112.35
2841.27	7772.31
2842.59	8592.29
2843.91	9486.66
2845.23	10585.1
2846.55	11688.4
2847.87	12738.6
2849.19	13562
2850.51	14046.1
2851.83	14262.8
2853.15	14275.2
2854.47	14073.1
2855.79	13691.6
2857.11	13335.2
2858.43	12979.2
2859.74	12643.4
2861.06	12396
2862.38	12163.8
2863.69	11860
2865.01	11685.2
2866.33	11588.3
2867.65	11511.3
2868.96	11670.2
2870.28	11750.4
2871.59	11927.1
2872.91	12185.8
2874.22	12307.6
2875.54	12410.5
2876.85	12609.2
2878.17	12742.1
2879.48	12900.1
2880.8	13108.9
2882.11	13210.5
2883.42	13338.3
2884.74	13349.1
2886.05	13331.4
2887.36	13341.9
2888.68	13325.6
2889.99	13310.6
2891.3	13352.6
2892.61	13282
2893.93	13298.3
2895.24	13261.4
2896.55	13303.3
2897.86	13205.2
2899.17	13234.9
2900.48	13163.2
2901.79	13134.3
2903.1	13148.8
2904.41	13062.7
2905.72	13007.2
2907.03	12975.8
2908.34	12922.7
2909.65	12869.6
2910.96	12876.9
2912.27	12757.1
2913.57	12760.7
2914.88	12718.4
2916.19	12668.2
2917.5	12616.5
2918.81	12544.6
2920.11	12483.1
2921.42	12496.5
2922.73	12507.1
2924.03	12494.5
2925.34	12513.5
2926.64	12501.1
2927.95	12525.4
2929.26	12510.4
2930.56	12502.3
2931.87	12494.6
2933.17	12476
2934.48	12411.4
2935.78	12271.2
2937.09	12158.3
2938.39	11939.7
2939.69	11629.6
2941	11252.4
2942.3	10774.2
2943.6	10285
2944.91	9880.89
2946.21	9455.36
2947.51	9071.01
2948.81	8768.29
2950.12	8481.57
2951.42	8282.97
2952.72	8178.66
2954.02	8011.72
2955.32	7954.82
2956.62	7852.51
2957.92	7834.32
2959.22	7723.29
2960.52	7633.24
2961.82	7557.66
2963.12	7406.73
2964.42	7266.3
2965.72	7080.49
2967.02	6958.1
2968.32	6751.4
2969.62	6581.29
2970.92	6429.31
2972.21	6225.03
2973.51	6101.12
2974.81	5946.13
2976.11	5839.92
2977.4	5726.72
2978.7	5607.09
2980	5478.77
2981.29	5379.94
2982.59	5310.38
2983.89	5219.58
2985.18	5134.1
2986.48	5063.08
2987.77	4982.13
2989.07	4941.77
2990.36	4892.54
2991.66	4872.02
2992.95	4856.65
2994.25	4783.91
2995.54	4779.42
2996.84	4775.93
2998.13	4788.56
2999.42	4752.96
3000.72	4740.96
3002.01	4752.54
3003.3	4777.25
3004.59	4753.26
3005.89	4728.28
3007.18	4714.49
3008.47	4697.09
3009.76	4660.74
3011.05	4603.51
3012.34	4565.41
3013.63	4482.28
3014.93	4434.91
3016.22	4345.11
3017.5	4313.6
3018.8	4291.01
3020.09	4180.56
3021.38	4136.73
3022.67	4089.44
3023.95	4070.79
3025.24	4020.54
3026.53	3976.09
3027.82	3912.46
3029.11	3928.87
3030.4	3914.32
3031.68	3900.35
3032.97	3902.66
3034.26	3894.43
3035.54	3846.67
3036.83	3864.66
3038.12	3823.25
3039.4	3838.45
3040.69	3819.68
3041.98	3811.75
3043.26	3823.28
3044.55	3841.46
3045.83	3820.58
3047.12	3825.42
3048.4	3820.94
3049.69	3816.52
3050.97	3829.58
3052.26	3820.98
3053.54	3820.44
3054.82	3812.14
3056.11	3832.71
3057.39	3816.73
3058.67	3846.54
3059.96	3836.22
3061.24	3846.01
3062.52	3859.85
3063.8	3859.93
3065.09	3883.06
3066.37	3876.3
3067.65	3850.22
3068.93	3877.46
3070.21	3833.33
3071.49	3827.67
3072.77	3855.5
3074.05	3857.44
3075.33	3858.39
3076.61	3844.49
3077.89	3856.57
3079.17	3829.31
3080.45	3835.78
3081.73	3850.88
3083.01	3847.63
3084.29	3836.56
3085.57	3839.43
3086.84	3850.14
3088.12	3859.82
3089.4	3890.64
3090.68	3874.03
3091.95	3893.71
3093.23	3861.59
3094.51	3911.66
3095.79	3847.59
3097.06	3882
3098.34	3917.25
3099.61	3933.02
3100.89	3933.31
3102.17	3912.26
3103.44	3938.2
3104.72	3973.03
3105.99	3970.56
3107.27	3983.56
3108.54	4006.71
3109.81	4030.17
3111.09	4037.98
3112.36	4018.74
3113.63	4054.28
3114.91	4062.08
3116.18	4089.69
3117.46	4062.8
3118.73	4091.9
3120	4136.76
3121.27	4146.86
3122.54	4159.71
3123.82	4149.22
3125.09	4165.69
3126.36	4178.26
3127.63	4192.88
3128.9	4204.25
3130.17	4238.94
3131.44	4248.53
3132.71	4280.95
3133.98	4291.06
3135.25	4312.14
3136.52	4303.1
3137.79	4326.1
3139.06	4317.1
3140.33	4374.12
3141.6	4373.83
3142.86	4357.67
3144.13	4407.46
3145.4	4393.37
3146.67	4439.15
3147.94	4465.76
3149.2	4491.3
3150.47	4483.14
3151.74	4501.33
3153	4530.91
3154.27	4545.86
3155.54	4575.38
3156.8	4583.64
3158.07	4589.52
3159.34	4617.68
3160.6	4611.56
3161.86	4633.32
3163.13	4682.46
3164.4	4649.17
3165.66	4701.51
3166.92	4705.49
3168.19	4674.81
3169.45	4743.13
3170.72	4769.35
3171.98	4741.46
3173.24	4747.31
3174.5	4725.3
3175.77	4759.79
3177.03	4753.53
3178.29	4740.29
3179.56	4746.63
3180.82	4741.73
3182.08	4760.08
3183.34	4737.22
3184.6	4801.5
3185.86	4773.34
3187.12	4747.42
3188.38	4764.02
3189.64	4796.41
3190.9	4764.67
3192.16	4776.4
3193.42	4787.21
3194.68	4791.59
3195.94	4769.24
3197.2	4779.81
3198.46	4773.01
3199.72	4781.86
3200.98	4797.47
3202.24	4806.96
3203.49	4786.79
3204.75	4793.54
3206.01	4767.75
3207.27	4786.08
3208.52	4757.43
3209.78	4762.72
3211.04	4758.82
3212.29	4736.98
3213.55	4743.76
3214.81	4749
3216.06	4741.27
3217.32	4745.95
3218.57	4754.28
3219.83	4731.21
3221.08	4730.67
3222.34	4729.33
3223.59	4720.72
3224.85	4724.75
3226.1	4712.19
3227.35	4710.04
3228.61	4701.25
3229.86	4703.29
3231.11	4683.6
3232.37	4692.92
3233.62	4683.81
3234.87	4671.99
3236.12	4658.44
3237.38	4652.43
3238.63	4649.08
3239.88	4647
3241.13	4632.49
3242.38	4629.85
3243.63	4616.18
3244.89	4602.64
3246.14	4599.26
3247.39	4608.19
3248.64	4603.91
3249.89	4579.19
3251.14	4576.49
3252.39	4575.53
3253.64	4559.48
3254.88	4537.77
3256.13	4538.94
3257.38	4538.11
3258.63	4515.17
3259.88	4505.46
3261.13	4505.34
3262.37	4468.07
3263.62	4471.55
3264.87	4472.14
3266.12	4463.37
3267.36	4462.46
3268.61	4459.89
3269.86	4452.79
3271.1	4436.3
3272.35	4435.65
3273.6	4436.26
3274.84	4436.02
3276.09	4421.91
3277.33	4416.54
3278.58	4404.89
3279.82	4388
3281.07	4381.65
3282.31	4377.73
3283.56	4363.03
3284.8	4348.77
3286.04	4352.46
3287.29	4354.75
3288.53	4348.14
3289.77	4331.32
3291.02	4318.39
3292.26	4314.33
3292.9	4315.2
3294.15	4312.69
3295.39	4302.43
3296.64	4282.81
3297.89	4309.76
3299.14	4271.36
3300.38	4307.48
3301.63	4279.67
3302.88	4287.51
3304.12	4262.55
3305.37	4252.91
3306.62	4240
3307.86	4268.3
3309.11	4264.79
3310.35	4252.19
3311.6	4254.6
3312.84	4239.77
3314.09	4238.21
3315.34	4225.74
3316.58	4224.95
3317.82	4226.8
3319.07	4214.28
3320.31	4206.34
3321.56	4209.89
3322.8	4208.72
3324.04	4207.72
3325.29	4213.33
3326.53	4206.68
3327.77	4197.73
3329.01	4209.73
3330.25	4174.57
3331.5	4182.44
3332.74	4171.8
3333.98	4192.53
3335.22	4178.59
3336.46	4158.38
3337.7	4186.69
3338.94	4161.51
3340.19	4148.49
3341.42	4142.88
3342.67	4135.48
3343.9	4136.53
3345.15	4140.62
3346.38	4147.85
3347.62	4145.42
3348.86	4105.28
3350.1	4134.06
3351.34	4119.62
3352.58	4123.31
3353.82	4111.58
3355.06	4093.71
3356.29	4129.54
3357.53	4089.46
3358.77	4090.86
3360	4117.62
3361.24	4112.11
3362.48	4071.69
3363.71	4078.01
3364.95	4093.12
3366.19	4096.2
3367.42	4076.88
3368.66	4091.51
3369.89	4070.98
3371.13	4067.52
3372.36	4087.29
3373.6	4093.53
3374.83	4075.6
3376.07	4056.74
3377.3	4093.86
3378.54	4071.43
3379.77	4065.23
3381	4039.35
3382.24	4065.47
3383.47	4007.98
3384.7	4041.31
3385.94	4037.43
3387.17	4027.91
3388.4	3986.67
3389.63	4011.74
3390.87	4044.71
3392.1	3999.31
3393.33	4021.88
3394.56	3989.38
3395.79	4033.57
3397.02	4012.06
3398.25	4006.98
3399.48	4021.33
3400.71	3976.95
3401.94	3982.61
3403.17	3997.28
3404.4	3992.93
3405.63	3952.72
3406.86	3954.08
3408.09	3965.92
3409.32	3980.94
3410.55	3966.17
3411.78	3958.26
3413	3958.69
3414.23	3934.5
3415.46	3942.03
3416.69	3895.78
3417.92	3905.98
3419.14	3903.67
3420.37	3892.65
3421.6	3893.32
3422.82	3903.62
3424.05	3862.99
3425.27	3876.26
3426.5	3842.3
3427.73	3846.52
3428.95	3823.46
3430.18	3840.16
3431.4	3808.99
3432.63	3806.54
3433.85	3801.81
3435.08	3808.51
3436.3	3776.58
3437.53	3779.96
3438.75	3772.92
3439.97	3774.94
3441.2	3742.03
3442.42	3715.87
3443.64	3746.71
3444.86	3700.7
3446.09	3713.83
3447.31	3690.89
3448.53	3686.5
3449.75	3679.9
3450.98	3645.07
3452.2	3652.85
3453.42	3634.15
3454.64	3621.52
3455.86	3594.94
3457.08	3614.45
3458.3	3592.26
3459.52	3593.46
3460.74	3574.76
3461.96	3548.12
3463.18	3533.91
3464.4	3534.86
3465.62	3516.15
3466.84	3535.73
3468.06	3493.17
3469.28	3495.82
3470.5	3502.44
3471.72	3456.63
3472.93	3439.08
3474.15	3433.58
3475.37	3399.87
3476.59	3389.83
3477.8	3394.53
3479.02	3363.32
3480.24	3342.4
3481.45	3322.93
3482.67	3307.93
3483.89	3280.11
3485.1	3270.86
3486.32	3263.15
3487.53	3237.29
3488.75	3245.93
3489.96	3215.32
3491.18	3211.98
3492.39	3197.13
3493.61	3177.92
3494.82	3139.69
3496.04	3133.94
3497.25	3139.03
3498.47	3104.81
3499.68	3067.03
