#Acq. time (s)=	10
#Accumulations=	10
#Range (cm-¹)=	400...3500
#Windows=	3
#Auto scanning=	Off
#Autofocus=	Off
#AutoExposure=	Off
#Spike filter=	Multiple accum.
#Delay time (s)=	0
#Binning=	1
#Readout mode=	Signal
#DeNoise=	Off
#ICS correction=	On
#Dark correction=	Off
#Inst. Process=	Off
#Detector Gain=	Best Dynamic Range
#Detector ADC=	45 kHz       
#Detector temperature (°C)=	-60.1
#Instrument=	LabRAM HR Evol
#Detector=	Syncerity OE
#Objective=	x50_VIS_LWD
#Grating=	600 (500nm)
#ND Filter=	50%
#Laser=	532nm_Edge
#Hole=	199.981
#Range=	Visible
#E-Cal_Neon=	0
#StageXY=	75x50mm Scan+
#StageZ=	Z motor
#X (µm)=	0
#Y (µm)=	0
#Z (µm)=	701.5
#Spectral res.(cm-¹)=	12.8
#Full time(mm:ss)=	5:19
#AC=	Calibrated 2025-07-01 10:31
#Project=	
#Sample=	
#Site=	
#Title=	D_1
#Remark=	
#Date=	01.07.2025 16:44 (India Standard Time)
#Acquired=	01.07.2025 16:44:43 (India Standard Time)
#AxisType[0]=Intens
#AxisUnit[0]=Cnt
#AxisType[1]=Spectr
#AxisUnit[1]=1/cm
400.083	19612.7
401.858	19494.7
403.63	19441
405.405	19540.5
407.176	19473.4
408.949	19458.4
410.72	19482.2
412.493	19403.3
414.263	19451.1
416.033	19462.8
417.805	19471.3
419.574	19470.2
421.345	19433.4
423.114	19424.3
424.884	19441.8
426.652	19440
428.421	19418.3
430.188	19455.8
431.955	19341.8
433.724	19380.2
435.49	19358.8
437.258	19332.8
439.023	19310.2
440.788	19324.3
442.555	19253.6
444.32	19275.4
446.084	19287.9
447.85	19231.7
449.613	19192.2
451.376	19172.3
453.141	19172.1
454.904	19173.7
456.666	19152.3
458.429	19159.9
460.191	19129
461.952	19100.7
463.715	19083.9
465.475	19064.3
467.235	19023
468.995	19050.1
470.756	19054.8
472.515	19062
474.274	19036.1
476.032	19030.9
477.793	19039.9
479.55	18915.7
481.308	18980.6
483.065	18978.5
484.823	18971.9
486.58	18960.8
488.336	18982
490.091	18939.5
491.847	18952.3
493.604	18982.1
495.358	18941.1
497.113	18961.4
498.867	18915.1
500.62	18974.3
502.374	19011.1
504.127	19008.5
505.881	19006.7
507.634	19054.8
509.386	19061.2
511.137	18975.6
512.888	19053.9
514.639	18964.1
516.39	18984.2
518.14	18944.5
519.89	18959.5
521.642	18837.9
523.391	18825.5
525.14	18859.7
526.889	18815.2
528.637	18813.1
530.385	18762.8
532.133	18748.1
533.88	18688.4
535.627	18725.7
537.373	18620.5
539.12	18650.3
540.866	18552
542.611	18562.6
544.357	18642.7
546.101	18552.6
547.846	18555.8
549.59	18513.6
551.334	18481.1
553.078	18414.6
554.821	18523.8
556.564	18533.5
558.307	18486.9
560.049	18443.9
561.789	18480.4
563.53	18496.1
565.272	18491.6
567.013	18453.6
568.753	18483.8
570.494	18491.2
572.233	18459.6
573.973	18500.3
575.712	18524.3
577.449	18469.5
579.188	18481.4
580.926	18505
582.664	18531.9
584.402	18566.2
586.139	18505.7
587.876	18584.6
589.611	18607.8
591.347	18588
593.083	18616.2
594.818	18589.6
596.554	18622.3
598.287	18603
600.021	18633.2
601.756	18663.1
603.49	18673.3
605.221	18648.9
606.955	18602
608.688	18507.7
610.42	18459.4
612.15	18404.2
613.882	18358.3
615.614	18395.7
617.345	18343
619.074	18318.6
620.805	18299.5
622.535	18264.1
624.263	18241.4
625.993	18234.9
627.722	18265.2
629.45	18254.9
631.178	18151.8
632.907	18202.7
634.633	18280
636.36	18235.4
638.088	18257
639.813	18271.6
641.539	18277.9
643.264	18170
644.99	18189.8
646.716	18052.2
648.439	18136.7
650.164	18075.3
651.887	18059.4
653.611	18052
655.335	18006.1
657.057	17982.3
658.781	18051.1
660.502	18004.3
662.225	17973.3
663.945	17920.7
665.667	17947.1
667.387	17954.6
669.108	17981.7
670.828	17938.1
672.548	17945.4
674.267	17951.2
675.987	17912.6
677.705	17851.6
679.424	17901.9
681.142	17860.6
682.86	17847.8
684.577	17880.4
686.293	17962.9
688.011	17890.3
689.727	17910
691.444	17959.5
693.159	17902.8
694.875	17976.2
696.59	17949.8
698.304	17993.2
700.019	17929.1
701.733	17933.8
703.448	17977.6
705.16	17961.4
706.872	17980.8
708.586	17943.9
710.298	17963
712.01	17947.6
713.723	17979
715.433	18020.4
717.144	17968.6
718.856	18039.4
720.565	18067.7
722.275	18064.8
723.984	18043.7
725.695	18039.8
727.403	18026.2
729.111	18019
730.821	17957
732.528	17957.8
734.235	17946.6
735.942	17953.2
737.651	17935
739.357	17958.3
741.063	17918.6
742.768	17948.5
744.474	17931.6
746.18	17939.4
747.885	17878.8
749.589	17939
751.293	17968.7
752.997	17963.7
754.702	18024.7
756.405	18083.3
758.108	18039
759.81	18002.2
761.512	18014.9
763.214	17962.2
764.915	18046.5
766.618	17976.9
768.319	18016.6
770.019	17975.4
771.719	17970.8
773.419	18015.3
775.118	18032.9
776.817	18109.8
778.516	18011.5
780.214	18001.1
781.913	17941.7
783.61	17986.6
785.308	18021
787.005	18037.3
788.702	17980.8
790.398	17970.2
792.095	17928
793.791	18004.8
795.486	17971.1
797.181	18012.6
798.876	18090.1
800.571	18081.7
802.265	18094.9
803.959	18193.7
805.653	18095.4
807.346	18246
809.039	18232.6
810.732	18236.6
812.424	18318.9
814.116	18294.2
815.808	18309.4
817.5	18474
819.191	18503.6
820.881	18555
822.572	18678.7
824.26	18745
825.95	18798.8
827.639	18914.9
829.329	18921.7
831.018	18954.6
832.706	19059.7
834.394	19065.7
836.08	19159.2
837.768	19127.2
839.455	19200.1
841.142	19306.2
842.829	19367.5
844.513	19343.9
846.199	19445.8
847.885	19485.5
849.57	19464.2
851.255	19472.2
852.938	19495.7
854.623	19538.2
856.307	19580.1
857.991	19610.8
859.672	19726.3
861.355	19720.4
863.038	19789.5
864.719	19800.6
866.401	19835.8
868.083	19766
869.765	19760
871.444	19760.4
873.125	19724.2
874.806	19744.7
876.484	19708
878.164	19567.1
879.844	19563.4
881.521	19503.4
883.2	19594.3
884.877	19552.1
886.555	19485.4
888.234	19444.3
889.909	19293.1
891.587	19136.3
893.262	19018.6
894.939	18902.2
896.616	18806
898.29	18756.3
899.966	18636.7
901.64	18654.4
903.315	18565.6
904.988	18568.8
906.663	18473.3
908.335	18491.2
910.009	18498.4
911.683	18495
913.354	18539.5
915.027	18552.9
916.698	18551.3
918.369	18575.3
920.041	18531.2
921.711	18468.7
923.383	18394.9
925.052	18350.2
926.723	18234.6
928.391	18122.9
930.062	18122.2
931.73	18064.2
933.399	18034.4
935.067	18071.4
936.734	17996
938.403	18111.4
940.069	18113.9
941.737	18083
943.403	18198.5
945.069	18158.6
946.736	18161.7
948.401	18171.2
950.065	18106.2
951.732	18113.8
953.396	18132.3
955.059	18212
956.725	18193.5
958.388	18201.9
960.051	18221.9
961.715	18227
963.377	18174.6
965.039	18187.3
966.7	18065.2
968.364	18094.8
970.025	17950.8
971.685	17944.6
973.345	17865.5
975.007	17869.8
976.667	17870.3
978.326	17871.1
979.985	17936.3
981.646	17880.6
983.304	17943.7
984.963	17950.3
986.62	18077.1
988.278	18078.2
989.935	18238.2
991.594	18392.4
993.25	18593.2
994.907	18840
996.563	19140.9
998.218	19560.6
999.874	19704.8
1001.53	19740.7
1003.19	19536.4
1004.84	19341.9
1006.49	19167
1008.15	18987.9
1009.8	18787.2
1011.45	18687.6
1013.11	18534.2
1014.76	18575.3
1016.41	18600.9
1018.06	18508.8
1019.72	18467.3
1021.37	18424.5
1023.02	18415.2
1024.67	18421.5
1026.32	18313.6
1027.97	18352.3
1029.62	18353.5
1031.27	18308
1032.92	18251.1
1034.57	18300.8
1036.22	18293.5
1037.86	18281.7
1039.51	18270
1041.16	18306.1
1042.81	18355.3
1044.45	18291.6
1046.1	18296.5
1047.75	18478.5
1049.39	18530.7
1051.04	18653.2
1052.68	18889.7
1054.33	19127.7
1055.97	19491.1
1057.62	19781.2
1059.26	19946.5
1060.91	19889.5
1062.55	19776.3
1064.19	19526.4
1065.83	19356.9
1067.48	19310.7
1069.12	19355.2
1070.76	19453.6
1072.4	19569.4
1074.04	19676.3
1075.68	19708.7
1077.32	19665.5
1078.97	19610.8
1080.61	19554.4
1082.24	19516.4
1083.88	19385.6
1085.52	19247.3
1087.16	19110
1088.8	18992.4
1090.44	18848.9
1092.08	18667.7
1093.71	18610.7
1095.35	18428.6
1096.99	18295.1
1098.62	18173.5
1100.26	18168.4
1101.9	18043
1103.53	17894.2
1105.17	17906.3
1106.8	18009.8
1108.44	18051.9
1110.07	18092.3
1111.7	18333
1113.34	18435.5
1114.97	18510.5
1116.6	18631.7
1118.23	18835.2
1119.87	18882.6
1121.5	19013.2
1123.13	19034.1
1124.76	18995.8
1126.39	18758.7
1128.03	18457.9
1129.65	18177.9
1131.29	17973.9
1132.91	17869.3
1134.54	17863.3
1136.17	17915.9
1137.8	18048.1
1139.43	18188.1
1141.06	18455.2
1142.69	18776
1144.31	19209.4
1145.94	19705.3
1147.57	20344.1
1149.19	21067.4
1150.82	21785.3
1152.45	22304.4
1154.07	22202.4
1155.7	21620
1157.32	20744.7
1158.95	19817.8
1160.57	19040.8
1162.2	18466.4
1163.82	18103.1
1165.44	17862.3
1167.07	17707.3
1168.69	17682.8
1170.31	17618.6
1171.94	17568.1
1173.56	17407.1
1175.18	17434.8
1176.8	17402
1178.42	17372.6
1180.04	17309.2
1181.66	17445.9
1183.28	17524
1184.9	17615.3
1186.52	17535.7
1188.14	17510.8
1189.76	17515.2
1191.38	17429.4
1192.99	17272.7
1194.61	17240.8
1196.23	17165.7
1197.85	17054
1199.46	16955.9
1201.08	16901.6
1202.7	16866.8
1204.31	16833.3
1205.93	16855.7
1207.54	16862.8
1209.16	16826.1
1210.78	16755.9
1212.39	16755.6
1214	16610.9
1215.62	16528.4
1217.23	16479.8
1218.84	16447
1220.46	16461.8
1222.07	16425.6
1223.68	16434.9
1225.29	16473.6
1226.91	16416.3
1228.52	16541.6
1230.13	16540.5
1231.74	16569.6
1233.35	16629.9
1234.96	16642.3
1236.57	16716.4
1238.18	16785.1
1239.79	16803.1
1241.4	16947.6
1243	16969.7
1244.61	17143.3
1246.22	17195.5
1247.83	17268.1
1249.43	17312.7
1251.04	17397.5
1252.65	17438.8
1254.25	17528.3
1255.86	17616.6
1257.47	17692
1259.07	17657.4
1260.68	17737.7
1262.28	17823.9
1263.89	17841.8
1265.49	17882
1267.09	17763.1
1268.7	17660.1
1270.3	17588.8
1271.9	17566.4
1273.51	17616.3
1275.11	17538.8
1276.71	17573.8
1278.31	17615.2
1279.91	17611.1
1281.52	17660.2
1283.12	17790
1284.72	17997.4
1286.32	18257.5
1287.92	18645.5
1289.52	19133.2
1291.12	19611.1
1292.72	20070.3
1294.31	20267.9
1295.91	20346.3
1297.51	20303.3
1299.11	20104.8
1300.71	19977.4
1302.3	19769.6
1303.9	19479.8
1305.5	19171.1
1307.09	18785.3
1308.69	18527.4
1310.28	18286
1311.88	17968.7
1313.47	17760.2
1315.07	17449.3
1316.66	17289.7
1318.26	17121.3
1319.85	16932.8
1321.44	16845.9
1323.04	16723.5
1324.63	16560.2
1326.22	16444.1
1327.82	16413.9
1329.41	16337.6
1331	16266.6
1332.59	16223.1
1334.18	16214.1
1335.77	16213.8
1337.36	16134.8
1338.95	16184.6
1340.54	16168.1
1342.13	16075.5
1343.72	16056.7
1345.31	15994.3
1346.9	15959
1348.49	16002.6
1350.07	16005.2
1351.66	15989.7
1353.25	15929.1
1354.84	15869
1356.42	15811.1
1358.01	15891.3
1359.6	15835.9
1361.18	15799.6
1362.77	15835.2
1364.35	15883.4
1365.94	15893.5
1367.52	15785.3
1369.11	15701.5
1370.69	15621.5
1372.28	15579.3
1373.86	15510
1375.44	15409.6
1377.02	15334.8
1378.61	15310.9
1380.19	15278.9
1381.77	15278.3
1383.35	15221.6
1384.93	15194.4
1386.52	15281.7
1388.1	15298.3
1389.68	15337.4
1391.26	15273.4
1392.84	15304.8
1394.41	15296.7
1396	15272.7
1397.57	15325.2
1399.15	15324.8
1400.73	15369.2
1402.31	15396.7
1403.89	15432
1405.46	15494.5
1407.04	15589.9
1408.62	15763.7
1410.19	15947.6
1411.77	16124.8
1413.35	16270
1414.92	16423.4
1416.5	16603.2
1418.07	16745
1419.65	16871.4
1421.22	17004
1422.8	17299.7
1424.37	17794.9
1425.94	18407.2
1427.52	19130.6
1429.09	19987.5
1430.66	20873.5
1432.23	21643
1433.8	22275.3
1435.38	22624.2
1436.95	22618.7
1438.52	22368.5
1440.09	22148.9
1441.66	21884.8
1443.23	21539.5
1444.8	21247.8
1446.37	21137.9
1447.94	20895
1449.51	20741.5
1451.08	20539
1452.65	20386.5
1454.22	20239.3
1455.78	19945.7
1457.35	19628.7
1458.92	19271.9
1460.48	18824.4
1462.05	18547.5
1463.62	18104.8
1465.18	17706.3
1466.75	17331.4
1468.31	16968.2
1469.88	16647.3
1471.44	16327.5
1473.01	16083.2
1474.57	15853.4
1476.14	15660.9
1477.7	15572.5
1479.26	15388.6
1480.83	15325
1482.39	15301.6
1483.95	15229.8
1485.51	15162.5
1487.08	15175.4
1488.64	15176.6
1490.2	15214
1491.76	15269.6
1493.32	15264
1494.88	15423.6
1496.44	15400.6
1498	15549.1
1499.56	15707.5
1501.12	15871.2
1502.68	16032.9
1504.24	16341.4
1505.8	16696.3
1507.35	17072.8
1508.91	17530
1510.47	17951.4
1512.03	18454.7
1513.58	18900.2
1515.14	19209.9
1516.69	19515.8
1518.25	19602.5
1519.81	19623.6
1521.36	19359.6
1522.92	19024.3
1524.47	18517.2
1526.03	17896.9
1527.58	17270.3
1529.13	16680
1530.69	16052.3
1532.24	15626.4
1533.79	15301.5
1535.35	15003.8
1536.9	14805.8
1538.45	14600
1540	14538.4
1541.55	14462.5
1543.11	14387.1
1544.66	14296.1
1546.21	14262.5
1547.76	14184.1
1549.31	14169.8
1550.86	14156.9
1552.41	14109.6
1553.96	14084.1
1555.5	14035.9
1557.05	13961.3
1558.6	14015
1560.15	13892.1
1561.7	13945.8
1563.24	13917
1564.79	13989.3
1566.34	13966.9
1567.88	13925.2
1569.43	13959.1
1570.98	14020.7
1572.52	13960.7
1574.07	13976.4
1575.61	13925.6
1577.16	13992
1578.7	13931
1580.25	13929.9
1581.79	13971.4
1583.34	13988.3
1584.88	13884.5
1586.42	13945.7
1587.96	13949.8
1589.51	13985.6
1591.05	14002.6
1592.59	13960.1
1594.13	13989.9
1595.67	13944.4
1597.21	13939.9
1598.76	13976.3
1600.3	14002.8
1601.83	14038.4
1603.37	13997.6
1604.92	13998
1606.45	13981.9
1607.99	13983.9
1609.53	13952.9
1611.07	13972.1
1612.61	13929.1
1614.15	13884.2
1615.68	13907.1
1617.22	13924.7
1618.76	13937.1
1620.29	13926.5
1621.83	13923.6
1623.37	13944.9
1624.9	13960.3
1626.44	13983.4
1627.97	14046.4
1629.51	14110.9
1631.04	14195.6
1632.58	14242
1634.11	14305.6
1635.64	14383.4
1637.18	14470.1
1638.71	14620.1
1640.24	14776.6
1641.78	14949.5
1643.31	15389.1
1644.84	15752
1646.37	16237.2
1647.9	16702.7
1649.44	16980.1
1650.97	17070.2
1652.5	16794.4
1654.03	16556.9
1655.56	16114.1
1657.09	15655
1658.62	15285.3
1660.14	15047.9
1661.67	14811.5
1663.2	14657.8
1664.73	14514.1
1666.26	14485.2
1667.79	14378.7
1669.31	14249.1
1670.84	14004.9
1672.37	13904.8
1673.89	13773
1675.42	13705.2
1676.95	13589.5
1678.47	13549.5
1680	13464
1681.52	13433.1
1683.05	13379
1684.57	13315.7
1686.1	13281.8
1687.62	13199.3
1689.14	13181
1690.67	13159.9
1692.19	13120.6
1693.71	13096
1695.23	13045.7
1696.76	12996.9
1698.28	13037.4
1699.8	12943
1701.32	12955
1702.84	12927.2
1704.36	12860.4
1705.88	12896.2
1707.4	12905.9
1708.92	12873.2
1710.44	12845.8
1711.96	12842.1
1713.48	12830.9
1715	12845.7
1716.52	12816.2
1718.04	12864.2
1719.56	12899.5
1721.07	12976.1
1722.59	12982.7
1724.11	13121.8
1725.63	13181.1
1727.14	13162.7
1728.66	13274.3
1730.17	13345.5
1731.69	13470.1
1733.2	13664.9
1734.72	13791
1736.23	13871.7
1737.75	14044.4
1739.26	14101
1740.78	14076.5
1742.29	14033.3
1743.8	13993.5
1745.32	13918.9
1746.83	13787.8
1748.34	13698.5
1749.86	13584.6
1751.37	13410.8
1752.88	13269.9
1754.39	13098.6
1755.9	12914.5
1757.41	12839.6
1758.92	12721.8
1760.43	12632.8
1761.94	12571.9
1763.45	12470.7
1764.96	12465.7
1766.47	12456
1767.98	12407.2
1769.49	12381.3
1771	12345.2
1772.5	12328.3
1774.01	12311.1
1775.52	12310.2
1777.03	12287.6
1778.53	12277
1780.04	12293.2
1781.55	12324
1783.05	12242
1784.56	12206.9
1786.06	12248.6
1787.57	12265.1
1789.07	12239.7
1790.58	12226.6
1792.08	12229.1
1793.59	12230.5
1795.09	12218.8
1796.59	12236.9
1798.1	12168.2
1799.6	12080
1801.1	12154.6
1802.61	12070.5
1804.11	12082
1805.61	12125.8
1807.11	12101.3
1808.61	12117.1
1810.11	12111.7
1811.61	12063.4
1813.11	12093.8
1814.61	12058
1816.11	12036.9
1817.61	12016.1
1819.11	12015.5
1820.61	12017
1822.11	12044
1823.61	12008.1
1825.11	12006.1
1826.6	12034.7
1828.1	11991.4
1829.6	12031.3
1831.1	12006.4
1832.59	11971.8
1834.09	11985.3
1835.59	11927.2
1837.08	11892.9
1838.58	11944.8
1840.07	11999.8
1841.57	11952.5
1843.06	11900.9
1844.56	11962.1
1846.05	11923.1
1847.54	11968.8
1849.04	11962
1850.53	11908.2
1852.02	11894.5
1853.52	11929.3
1855.01	11882.2
1856.5	11879.2
1857.99	11854.5
1859.49	11838.3
1860.98	11857.8
1862.47	11861.2
1863.96	11826.8
1865.45	11802.8
1866.94	11780.1
1868.43	11822.8
1869.92	11773.9
1871.41	11817.2
1872.9	11828.6
1874.39	11803.3
1875.88	11817.5
1877.37	11782.3
1878.85	11783
1880.34	11764.5
1881.83	11800.5
1883.32	11738.5
1884.8	11776.3
1886.29	11690.9
1887.78	11711.9
1889.26	11720.6
1890.75	11714
1892.23	11690.9
1893.72	11716.8
1895.21	11649.1
1896.69	11672.6
1898.17	11684.3
1899.66	11591.4
1901.14	11648
1902.63	11628.4
1904.11	11528.5
1905.59	11536.3
1907.08	11548.9
1908.56	11506.2
1910.04	11495.1
1911.52	11507.5
1913	11466
1914.49	11419.8
1915.97	11377
1917.45	11421.2
1918.93	11376.4
1920.41	11315.7
1921.89	11395.1
1923.37	11307.9
1924.85	11269
1926.33	11279.8
1927.81	11235.1
1929.29	11223.9
1930.76	11200.5
1932.24	11207.5
1933.72	11237.7
1935.2	11174.8
1936.67	11124.6
1938.15	11096.8
1939.63	11085.2
1941.1	11077
1942.58	11098.8
1944.06	11055.7
1945.53	11040.3
1947.01	11031.6
1948.48	10996.1
1949.96	10943.1
1951.43	10935.3
1952.91	10918.2
1954.38	10896.5
1955.86	10823.3
1957.33	10852.5
1958.8	10799.5
1960.27	10834.2
1961.75	10784.3
1963.22	10758.4
1964.69	10762.1
1966.16	10762.6
1967.64	10753.4
1969.11	10712.5
1970.58	10688.8
1972.05	10724.4
1973.52	10657.6
1974.99	10669.9
1976.46	10643.6
1977.93	10620.9
1979.4	10599.5
1980.87	10608.4
1982.34	10567.2
1983.81	10555.9
1985.27	10564.3
1986.74	10537.8
1988.21	10499.9
1989.68	10497.1
1991.14	10484.5
1992.61	10407.9
1994.08	10392.7
1995.55	10373.8
1997.01	10377.2
1998.48	10342.7
1999.94	10330.6
2001.41	10312.5
2002.87	10319.1
2004.34	10328.2
2005.8	10299.7
2007.27	10262.2
2008.73	10268.7
2010.19	10232.2
2011.66	10252.4
2013.12	10229.9
2014.58	10212.7
2016.05	10179.8
2017.51	10165.4
2018.97	10171.5
2020.43	10118.5
2021.89	10130.5
2023.36	10107.9
2024.82	10080.8
2026.28	10086.6
2027.74	10060.1
2029.2	10051.4
2030.66	10037.6
2032.12	10022.6
2033.58	10019.7
2035.04	9994.05
2036.49	9988.21
2037.95	9976.54
2039.41	9965.74
2040.87	9934.26
2042.33	9928.31
2043.78	9937.02
2045.24	9891.42
2045.76	9862.54
2047.22	9850.63
2048.69	9865
2050.15	9910.41
2051.61	9830.25
2053.07	9837.65
2054.54	9815.35
2056	9830.79
2057.46	9811.39
2058.92	9791.61
2060.38	9796.08
2061.84	9775.5
2063.3	9775.69
2064.76	9777.32
2066.22	9788.33
2067.68	9766.78
2069.14	9776.18
2070.6	9759.1
2072.06	9747.2
2073.52	9733.17
2074.98	9717.81
2076.44	9686.16
2077.89	9695.02
2079.35	9719.74
2080.81	9648.51
2082.27	9683.68
2083.72	9665.52
2085.18	9683.19
2086.63	9682.39
2088.09	9656.54
2089.55	9612.28
2091	9616.32
2092.46	9562.77
2093.91	9592.71
2095.37	9599.1
2096.82	9589.92
2098.28	9589.72
2099.73	9564.1
2101.18	9562.81
2102.64	9526.43
2104.09	9597.41
2105.54	9538.04
2106.99	9550.69
2108.45	9570.78
2109.9	9540.37
2111.35	9523.34
2112.8	9522.81
2114.25	9472.36
2115.71	9454.28
2117.16	9489.13
2118.61	9428.34
2120.06	9483.73
2121.51	9488.46
2122.96	9465.05
2124.4	9458.48
2125.85	9447.79
2127.3	9437.52
2128.75	9383.71
2130.2	9377.61
2131.65	9336.25
2133.09	9403.77
2134.54	9411.88
2135.99	9354.26
2137.44	9389.21
2138.88	9378.13
2140.33	9395.81
2141.78	9369.34
2143.22	9348.74
2144.67	9355.04
2146.11	9328.68
2147.56	9324.15
2149	9288.3
2150.45	9336.79
2151.89	9347.2
2153.34	9328.64
2154.78	9361.69
2156.22	9315.83
2157.67	9327.56
2159.11	9315.65
2160.55	9286.58
2162	9313.08
2163.44	9293.29
2164.88	9237.28
2166.32	9265.55
2167.76	9233.17
2169.2	9305.5
2170.64	9208.4
2172.09	9189.04
2173.53	9209.66
2174.97	9213.36
2176.41	9188.75
2177.85	9168.85
2179.29	9187.19
2180.72	9208.31
2182.16	9154.65
2183.6	9168.21
2185.04	9133.82
2186.48	9095.78
2187.92	9109.16
2189.35	9094.15
2190.79	9052.7
2192.23	9058.75
2193.66	9027.2
2195.1	9082.67
2196.54	9081.91
2197.97	9040.93
2199.41	9030.44
2200.84	9012.8
2202.28	9009.34
2203.71	8988.09
2205.15	9050.06
2206.58	8937.48
2208.02	8938.93
2209.45	9017.89
2210.88	8902.45
2212.32	8886.14
2213.75	8898.74
2215.18	8843.58
2216.62	8851.9
2218.05	8865.87
2219.48	8814.79
2220.91	8837.79
2222.34	8786.52
2223.78	8782.78
2225.21	8776.85
2226.64	8807.98
2228.07	8757.91
2229.5	8779.53
2230.93	8677.67
2232.36	8758.17
2233.79	8779.11
2235.22	8734.43
2236.65	8674.6
2238.07	8709.02
2239.5	8653.04
2240.93	8666.07
2242.36	8656.65
2243.79	8639.16
2245.21	8624.04
2246.64	8615.06
2248.07	8584.88
2249.49	8603.45
2250.92	8604.58
2252.35	8597.97
2253.77	8563.22
2255.2	8553.4
2256.62	8511.99
2258.05	8532.86
2259.47	8488.18
2260.9	8457.79
2262.32	8462.09
2263.75	8442.97
2265.17	8392.71
2266.59	8405.18
2268.02	8413.62
2269.44	8365.01
2270.86	8403.14
2272.29	8361.57
2273.71	8337.02
2275.13	8331.1
2276.55	8340.96
2277.97	8302.13
2279.39	8274.72
2280.81	8314.16
2282.24	8306.02
2283.66	8284.37
2285.08	8243.45
2286.5	8246.29
2287.92	8185.14
2289.34	8208.78
2290.75	8212.09
2292.17	8198.75
2293.59	8243.08
2295.01	8161.87
2296.43	8182.97
2297.85	8182.5
2299.26	8180.3
2300.68	8161.55
2302.1	8164.07
2303.51	8110.95
2304.93	8122.37
2306.35	8130.16
2307.76	8114.99
2309.18	8021.19
2310.6	8091.17
2312.01	8103.41
2313.43	8046.64
2314.84	8022.81
2316.25	8022.9
2317.67	8040.17
2319.08	8000.18
2320.5	7992.81
2321.91	7996.89
2323.32	8031.85
2324.74	8087.85
2326.15	8232.48
2327.56	8253.76
2328.98	8080.28
2330.39	7948.18
2331.8	7861.89
2333.21	7830.06
2334.62	7832.13
2336.03	7807.58
2337.44	7803.71
2338.85	7820.61
2340.26	7835.75
2341.67	7811.14
2343.08	7770.51
2344.49	7794.72
2345.9	7742.27
2347.31	7772.25
2348.72	7720.08
2350.13	7687.29
2351.54	7669.28
2352.94	7703.1
2354.35	7678.84
2355.76	7678.82
2357.17	7636.09
2358.57	7615.82
2359.98	7605.21
2361.39	7634.15
2362.79	7607.71
2364.2	7564.78
2365.6	7561.3
2367.01	7558.89
2368.41	7576.01
2369.82	7552.39
2371.22	7551.01
2372.63	7512.8
2374.03	7493.42
2375.44	7489.33
2376.84	7465.91
2378.24	7470.08
2379.65	7482.84
2381.05	7484.83
2382.45	7438.77
2383.85	7419.21
2385.26	7436.84
2386.66	7430.51
2388.06	7407.72
2389.46	7426.83
2390.86	7404.26
2392.26	7381.02
2393.66	7347.67
2395.06	7336.6
2396.46	7319.12
2397.86	7318.12
2399.26	7322.87
2400.66	7312.4
2402.06	7309.74
2403.46	7332.02
2404.86	7303.33
2406.26	7279.82
2407.66	7304.27
2409.05	7262.58
2410.45	7271.69
2411.85	7261.88
2413.24	7241.84
2414.64	7209.49
2416.04	7187.45
2417.43	7237.23
2418.83	7188.76
2420.23	7182.72
2421.62	7189.16
2423.02	7173.93
2424.41	7195.79
2425.81	7122.22
2427.2	7143.47
2428.6	7183.54
2429.99	7151.53
2431.38	7130.13
2432.78	7097.91
2434.17	7105.4
2435.56	7096.89
2436.96	7103.52
2438.35	7038.69
2439.74	7051.03
2441.13	7060.5
2442.53	7050.06
2443.92	7016.59
2445.31	7035.82
2446.7	7057.6
2448.09	6982.44
2449.48	7054.04
2450.87	7006.34
2452.26	6966.72
2453.65	6957.19
2455.04	6990.98
2456.43	6977.91
2457.82	6933.81
2459.21	6933.38
2460.6	6911.16
2461.98	6904.34
2463.37	6933.43
2464.76	6929.92
2466.15	6877.85
2467.53	6907.3
2468.92	6918.4
2470.31	6856.93
2471.7	6854.79
2473.08	6859.04
2474.47	6838.91
2475.85	6838.81
2477.24	6841.92
2478.63	6800.57
2480.01	6792.78
2481.39	6820.38
2482.78	6797.11
2484.16	6774.72
2485.55	6801.92
2486.93	6798.52
2488.32	6783.34
2489.7	6741.05
2491.08	6780.14
2492.46	6738.15
2493.85	6742.69
2495.23	6735.15
2496.61	6743.42
2497.99	6710.67
2499.38	6697.73
2500.76	6684.29
2502.14	6698.51
2503.52	6696.76
2504.9	6666.41
2506.28	6663.97
2507.66	6649.55
2509.04	6640.96
2510.42	6661.81
2511.8	6630.41
2513.18	6650.32
2514.56	6659.09
2515.94	6607.02
2517.31	6614.93
2518.69	6589.62
2520.07	6592.58
2521.45	6569.49
2522.82	6611.55
2524.2	6579.18
2525.58	6570.01
2526.96	6584.85
2528.33	6579.33
2529.71	6520.77
2531.09	6561.69
2532.46	6485.43
2533.84	6510.38
2535.21	6520.84
2536.59	6488.46
2537.96	6488.2
2539.34	6490.05
2540.71	6496.29
2542.08	6481.67
2543.46	6473.24
2544.83	6451.35
2546.2	6468.95
2547.58	6417.16
2548.95	6411.91
2550.32	6418.05
2551.7	6351.62
2553.07	6417.12
2554.44	6347.51
2555.81	6330.97
2557.18	6384.43
2558.55	6412.83
2559.92	6358.66
2561.29	6372.71
2562.66	6366.47
2564.03	6345.47
2565.4	6338.61
2566.77	6314.21
2568.14	6292.44
2569.51	6327.96
2570.88	6310.5
2572.25	6305.91
2573.62	6294.02
2574.99	6309.18
2576.35	6318.28
2577.72	6308.85
2579.09	6289.23
2580.46	6290.73
2581.82	6275.54
2583.19	6291.52
2584.56	6262.99
2585.92	6325.53
2587.29	6307.62
2588.65	6272.27
2590.02	6320.86
2591.38	6327.56
2592.75	6277.82
2594.11	6301.62
2595.48	6273.76
2596.84	6273.05
2598.21	6214.04
2599.57	6271.49
2600.93	6242.22
2602.3	6244.2
2603.66	6250.2
2605.02	6243.56
2606.39	6257.09
2607.75	6249.8
2609.11	6228.94
2610.47	6221.65
2611.83	6212.67
2613.19	6219.14
2614.56	6199.24
2615.92	6186.52
2617.28	6205.02
2618.64	6182.83
2620	6191.59
2621.36	6179.35
2622.72	6170.15
2624.08	6161.8
2625.44	6163.53
2626.8	6140.18
2628.15	6147.32
2629.51	6159.49
2630.87	6146.92
2632.23	6141.77
2633.59	6148.08
2634.94	6143.48
2636.3	6126
2637.66	6152.38
2639.01	6106.84
2640.37	6134.62
2641.73	6133.45
2643.08	6154.65
2644.44	6122.36
2645.79	6151.04
2647.15	6153.71
2648.5	6214.93
2649.86	6130.58
2651.21	6132.84
2652.57	6178.02
2653.92	6181.01
2655.28	6173.49
2656.63	6145.55
2657.98	6164.14
2659.33	6181.6
2660.69	6181.81
2662.04	6172.72
2663.39	6194.75
2664.75	6184.13
2666.1	6213.47
2667.45	6198.62
2668.8	6192.52
2670.15	6178.43
2671.5	6223.19
2672.85	6155.8
2674.2	6151.06
2675.55	6166.95
2676.9	6144.2
2678.25	6144.38
2679.6	6116.87
2680.95	6159.56
2682.3	6128.75
2683.65	6143.09
2685	6076.17
2686.35	6130.08
2687.7	6063.21
2689.04	6104.87
2690.39	6130.74
2691.74	6118.99
2693.09	6062.04
2694.43	6074.3
2695.78	6094.93
2697.13	6062.71
2698.47	6091.88
2699.82	6075.17
2701.16	6139.31
2702.51	6110.02
2703.85	6146.21
2705.2	6199
2706.54	6182.55
2707.89	6226.62
2709.23	6239.78
2710.58	6226.44
2711.92	6242.92
2713.26	6228.58
2714.61	6268.81
2715.95	6291.77
2717.29	6233.92
2718.64	6258.46
2719.98	6289.42
2721.32	6306.66
2722.66	6323.33
2724	6271.98
2725.35	6304.35
2726.69	6278.33
2728.03	6233.7
2729.37	6230.78
2730.71	6238.69
2732.05	6180.84
2733.39	6151.9
2734.73	6055.86
2736.07	6069.9
2737.41	6012.09
2738.75	5949.23
2740.09	5951.63
2741.42	5905.04
2742.76	5857.63
2744.1	5859.53
2745.44	5848.3
2746.78	5800.56
2748.11	5782.24
2749.45	5765.16
2750.79	5789.1
2752.12	5710.29
2753.46	5718.14
2754.8	5697.08
2756.13	5727.88
2757.47	5694.32
2758.81	5687.18
2760.14	5658.88
2761.47	5673.83
2762.81	5671.79
2764.14	5635.16
2765.48	5628.9
2766.81	5642.63
2768.15	5630.02
2769.48	5620.65
2770.81	5602.8
2772.15	5611.72
2773.48	5617.64
2774.81	5598.11
2776.14	5605.91
2777.48	5605.56
2778.81	5607.87
2780.14	5564.27
2781.47	5545.68
2782.8	5589.24
2784.13	5580.46
2785.47	5595.31
2786.8	5518.63
2788.13	5572.48
2789.46	5557.82
2790.79	5586.1
2792.12	5547.27
2793.44	5593.72
2794.77	5595.8
2796.1	5574.62
2797.43	5593.53
2798.76	5620.66
2800.09	5612.75
2801.42	5601.77
2802.74	5658.91
2804.07	5669.78
2805.4	5637.58
2806.73	5599.39
2808.05	5635.77
2809.38	5661.37
2810.71	5678.85
2812.03	5694.06
2813.36	5719.51
2814.68	5730.63
2816.01	5776.37
2817.33	5807.96
2818.66	5824.13
2819.98	5911.42
2821.31	5931.56
2822.63	5971.18
2823.96	6006.57
2825.28	6124.76
2826.6	6202.89
2827.93	6360.25
2829.25	6468.23
2830.57	6572.42
2831.9	6759.66
2833.22	6986.71
2834.54	7310.81
2835.86	7718.32
2837.19	8165.73
2838.51	8780.15
2839.83	9444.35
2841.15	10376.3
2842.47	11289.7
2843.79	12272.5
2845.11	13144.8
2846.43	13817.9
2847.75	14247.5
2849.07	14428.4
2850.39	14389.4
2851.71	14149.7
2853.03	13904.9
2854.35	13587.8
2855.66	13291.8
2856.98	13010.7
2858.3	12803.5
2859.62	12595.5
2860.94	12381.6
2862.25	12223.7
2863.57	12131.8
2864.89	12104.7
2866.2	12155.6
2867.52	12306.9
2868.84	12551.6
2870.15	12687.8
2871.47	12878.1
2872.78	12994.2
2874.1	13149.1
2875.41	13315.4
2876.73	13518.6
2878.04	13723.3
2879.36	13812.1
2880.67	13879.6
2881.98	13833.4
2883.3	13844.2
2884.61	13841.6
2885.92	13767.8
2887.24	13845.6
2888.55	13778.1
2889.86	13778.3
2891.18	13753.6
2892.49	13743.2
2893.8	13717.2
2895.11	13744.2
2896.42	13649.1
2897.73	13690.9
2899.04	13688.7
2900.35	13657.4
2901.67	13539.9
2902.97	13473.1
2904.29	13453.4
2905.59	13451.6
2906.9	13426.5
2908.21	13331.5
2909.52	13340
2910.83	13313.8
2912.14	13254.2
2913.45	13181
2914.76	13225.4
2916.06	13180
2917.37	13095
2918.68	13123.4
2919.99	13125.4
2921.29	13104.9
2922.6	13107.7
2923.91	13140.2
2925.21	13138.7
2926.52	13131.1
2927.82	13095
2929.13	13139.8
2930.44	13129.2
2931.74	13001
2933.05	12944.2
2934.35	12768.6
2935.65	12630.2
2936.96	12362.6
2938.26	12070.1
2939.57	11668.8
2940.87	11258.9
2942.17	10801.3
2943.48	10468.5
2944.78	10125.7
2946.08	9869.13
2947.38	9574.29
2948.69	9427.98
2949.99	9242.12
2951.29	9180.45
2952.59	9112.73
2953.89	9022.81
2955.19	8909.68
2956.49	8884.8
2957.8	8771.13
2959.1	8720.98
2960.4	8585.33
2961.7	8469.5
2962.99	8310.77
2964.29	8171.28
2965.59	8010.72
2966.89	7865.15
2968.19	7697.77
2969.49	7538.53
2970.79	7427.34
2972.09	7304.14
2973.38	7127.12
2974.68	7079.95
2975.98	6987.23
2977.28	6876.73
2978.57	6826.73
2979.87	6728.68
2981.17	6613.4
2982.46	6602.5
2983.76	6496.03
2985.05	6436.77
2986.35	6377.35
2987.65	6352.53
2988.94	6306.16
2990.24	6272.86
2991.53	6284.3
2992.82	6224.54
2994.12	6193.78
2995.41	6204.51
2996.71	6216.18
2998	6219.75
2999.29	6154.09
3000.59	6214.5
3001.88	6197.04
3003.17	6180.37
3004.47	6168.35
3005.76	6120.33
3007.05	6077.25
3008.34	6072.68
3009.63	5981.73
3010.92	5931.15
3012.21	5884.13
3013.5	5870.3
3014.8	5744.21
3016.09	5721.3
3017.38	5677.96
3018.67	5627.64
3019.96	5618.03
3021.25	5568.75
3022.54	5544.93
3023.82	5510.05
3025.11	5485.44
3026.4	5495.87
3027.69	5472.44
3028.98	5423.46
3030.27	5378
3031.55	5452.31
3032.84	5402.3
3034.13	5412.55
3035.42	5398.98
3036.7	5360.71
3037.99	5389.11
3039.28	5384.4
3040.56	5373.72
3041.85	5394.31
3043.13	5351.76
3044.42	5395.62
3045.7	5404.74
3046.99	5406.79
3048.27	5392.76
3049.56	5405.88
3050.84	5441.19
3052.13	5424.08
3053.41	5410.77
3054.69	5383.91
3055.98	5433.79
3057.26	5441.54
3058.54	5462.56
3059.83	5501.55
3061.11	5533.98
3062.39	5480.87
3063.67	5468.08
3064.95	5467.74
3066.24	5482.55
3067.52	5502.11
3068.8	5458.38
3070.08	5487.51
3071.36	5479.63
3072.64	5518.92
3073.92	5511.15
3075.2	5508.82
3076.48	5528.7
3077.76	5488.99
3079.04	5491.2
3080.32	5502.02
3081.6	5525.99
3082.88	5489.85
3084.16	5527.97
3085.44	5544.81
3086.71	5540.46
3087.99	5566.81
3089.27	5561.79
3090.55	5573.06
3091.82	5583.1
3093.1	5601.53
3094.38	5603.7
3095.65	5604.18
3096.93	5607.69
3098.21	5652.29
3099.48	5645.53
3100.76	5657.82
3102.03	5696.1
3103.31	5711.8
3104.58	5714.51
3105.86	5731.17
3107.13	5786.61
3108.41	5765.75
3109.68	5817.5
3110.96	5817.79
3112.23	5832.36
3113.5	5849.02
3114.78	5867.67
3116.05	5866.04
3117.32	5937.77
3118.59	5917.64
3119.87	5985.84
3121.14	5951.7
3122.41	5998.13
3123.68	5982.11
3124.95	6000.51
3126.23	6065.02
3127.5	6081.87
3128.77	6040.89
3130.04	6121.99
3131.31	6082.77
3132.58	6150.08
3133.85	6186.97
3135.12	6193.22
3136.39	6194.91
3137.66	6268.34
3138.93	6225.42
3140.2	6312.69
3141.46	6314.72
3142.73	6296.67
3144	6366.12
3145.27	6322.44
3146.54	6345.32
3147.8	6411.33
3149.07	6438.19
3150.34	6494.46
3151.6	6468.01
3152.87	6512.48
3154.14	6526.75
3155.4	6541.17
3156.67	6585.78
3157.94	6571.08
3159.2	6630.46
3160.47	6620.97
3161.73	6638.12
3163	6694.78
3164.26	6734.39
3165.53	6714.36
3166.79	6697.24
3168.05	6701.92
3169.32	6714.42
3170.58	6753.24
3171.84	6696.89
3173.11	6716.52
3174.37	6733.4
3175.63	6729.75
3176.9	6713.68
3178.16	6752.79
3179.42	6734.08
3180.68	6745.19
3181.94	6745.62
3183.21	6772.68
3184.47	6779.33
3185.73	6741.74
3186.99	6785.85
3188.25	6753.15
3189.51	6760.16
3190.77	6761.33
3192.03	6776.85
3193.29	6753.15
3194.55	6756.13
3195.81	6753.39
3197.07	6715.44
3198.33	6769
3199.58	6750.2
3200.84	6754.58
3202.1	6761.43
3203.36	6749.7
3204.62	6766.93
3205.87	6765.51
3207.13	6752.32
3208.39	6741.3
3209.65	6732.29
3210.9	6733.94
3212.16	6709.95
3213.41	6722.66
3214.67	6703.56
3215.93	6669.1
3217.18	6664.14
3218.44	6672.47
3219.69	6652.5
3220.95	6649.78
3222.2	6661.99
3223.46	6660.56
3224.71	6657.77
3225.97	6620.23
3227.22	6647.41
3228.47	6620.67
3229.73	6625.42
3230.98	6605.88
3232.23	6584.64
3233.48	6583.69
3234.74	6567.14
3235.99	6549.6
3237.24	6574.63
3238.49	6554.54
3239.75	6506.58
3241	6542.22
3242.25	6524.04
3243.5	6505.28
3244.75	6487.66
3246	6479.4
3247.25	6461.21
3248.5	6451.59
3249.75	6451.47
3251	6445.39
3252.25	6426.29
3253.5	6403.92
3254.75	6391.08
3256	6365.64
3257.25	6380.93
3258.49	6349.43
3259.74	6350.27
3260.99	6324.49
3262.24	6319.38
3263.49	6308.5
3264.73	6284.88
3265.98	6281.46
3267.23	6283.83
3268.47	6291.24
3269.72	6277.98
3270.97	6257.85
3272.21	6275.96
3273.46	6221.92
3274.7	6236.3
3275.95	6194.2
3277.2	6196.34
3278.44	6202.49
3279.69	6171.95
3280.93	6178.58
3282.17	6176.33
3283.42	6185.52
3284.66	6159.3
3285.91	6121.71
3287.15	6147.72
3288.39	6156.28
3289.64	6114.36
3290.88	6101.38
3292.12	6095.93
3292.31	6087.98
3293.56	6065.94
3294.8	6074.2
3296.05	6103.07
3297.3	6071.01
3298.55	6047.19
3299.79	6052.58
3301.04	6045.57
3302.29	6031.86
3303.54	6036.16
3304.78	6032.3
3306.03	6021.79
3307.27	6017
3308.52	6028.28
3309.76	6003.02
3311.01	5998.38
3312.26	6001.47
3313.5	5985.86
3314.75	5992.27
3315.99	5989.61
3317.23	5970.35
3318.48	5975.61
3319.72	5979.81
3320.97	5974.32
3322.21	5955.16
3323.45	5964.36
3324.7	5956.6
3325.94	5939.73
3327.18	5961.9
3328.42	5962.41
3329.67	5909.34
3330.91	5917.64
3332.15	5909.51
3333.39	5926.73
3334.63	5939.91
3335.87	5934.02
3337.12	5911.48
3338.36	5883.22
3339.6	5935.34
3340.84	5862.78
3342.08	5895.91
3343.32	5871.36
3344.56	5884.92
3345.8	5892.72
3347.04	5883.14
3348.27	5877.9
3349.51	5891.94
3350.75	5846.45
3351.99	5884.59
3353.23	5864.43
3354.47	5861.74
3355.7	5878.84
3356.94	5900.66
3358.18	5882.18
3359.42	5881.21
3360.65	5862.07
3361.89	5845.26
3363.13	5830.59
3364.36	5821.4
3365.6	5828.62
3366.83	5866.49
3368.07	5830.02
3369.31	5829.85
3370.54	5837.17
3371.78	5826.57
3373.01	5840.35
3374.25	5801.09
3375.48	5847.26
3376.71	5800.51
3377.95	5824.38
3379.18	5802.69
3380.42	5778.84
3381.65	5769.04
3382.88	5795.82
3384.12	5753.41
3385.35	5786.52
3386.58	5762.94
3387.81	5760.77
3389.04	5787.41
3390.28	5740.4
3391.51	5735.76
3392.74	5773.24
3393.97	5756.56
3395.2	5745.46
3396.43	5774.75
3397.67	5734.82
3398.9	5709.46
3400.13	5679.64
3401.36	5720.08
3402.58	5683.14
3403.82	5705.41
3405.05	5699
3406.27	5710.67
3407.5	5684.71
3408.73	5687.03
3409.96	5674.29
3411.19	5668.12
3412.42	5649.46
3413.64	5651.75
3414.87	5658.34
3416.1	5648.04
3417.33	5628.24
3418.55	5628.33
3419.78	5615.5
3421.01	5604.93
3422.23	5582.29
3423.46	5586.82
3424.69	5580.31
3425.91	5540.86
3427.14	5549.16
3428.36	5513.21
3429.59	5527.25
3430.81	5520.71
3432.04	5482.61
3433.26	5515.63
3434.49	5461.79
3435.71	5495.72
3436.94	5467.96
3438.16	5438.78
3439.39	5420.62
3440.61	5436.96
3441.83	5375.83
3443.05	5397.99
3444.28	5370.67
3445.5	5348.24
3446.72	5320.17
3447.95	5320.53
3449.17	5328.06
3450.39	5305.48
3451.61	5286.04
3452.83	5252.79
3454.05	5272.51
3455.27	5270.38
3456.5	5223.24
3457.71	5245.05
3458.94	5217.61
3460.16	5183.89
3461.38	5172
3462.59	5158.35
3463.81	5164.03
3465.03	5102.29
3466.25	5120.04
3467.47	5126.14
3468.69	5028.05
3469.91	5059.36
3471.13	5015.71
3472.35	5013.63
3473.56	4980.97
3474.78	4981.83
3476	4981.23
3477.22	4922.73
3478.43	4943.16
3479.65	4897.13
3480.87	4903.42
3482.08	4877.91
3483.3	4815.6
3484.52	4840.73
3485.73	4812.84
3486.95	4773.75
3488.16	4774.26
3489.38	4741.57
3490.59	4718.13
3491.81	4730.29
3493.02	4715.44
3494.24	4701.53
3495.45	4646.71
3496.67	4634.03
3497.88	4607.62
3499.09	4596.08
