#Acq. time (s)=	10
#Accumulations=	10
#Range (cm-¹)=	400...3500
#Windows=	3
#Auto scanning=	Off
#Autofocus=	Off
#AutoExposure=	Off
#Spike filter=	Multiple accum.
#Delay time (s)=	0
#Binning=	1
#Readout mode=	Signal
#DeNoise=	Off
#ICS correction=	On
#Dark correction=	Off
#Inst. Process=	Off
#Detector Gain=	Best Dynamic Range
#Detector ADC=	45 kHz       
#Detector temperature (°C)=	-60.1
#Instrument=	LabRAM HR Evol
#Detector=	Syncerity OE
#Objective=	x50_VIS_LWD
#Grating=	600 (500nm)
#ND Filter=	50%
#Laser=	532nm_Edge
#Hole=	199.981
#Range=	Visible
#E-Cal_Neon=	0
#StageXY=	75x50mm Scan+
#StageZ=	Z motor
#X (µm)=	0
#Y (µm)=	0
#Z (µm)=	649.4
#Spectral res.(cm-¹)=	12.8
#Full time(mm:ss)=	5:19
#AC=	Calibrated 2025-07-01 10:31
#Project=	
#Sample=	
#Site=	
#Title=	D_1
#Remark=	
#Date=	01.07.2025 15:53 (India Standard Time)
#Acquired=	01.07.2025 15:53:02 (India Standard Time)
#AxisType[0]=Intens
#AxisUnit[0]=Cnt
#AxisType[1]=Spectr
#AxisUnit[1]=1/cm
400.083	19794.8
401.858	19690.6
403.63	19563.4
405.405	19588.2
407.176	19576.6
408.949	19554.7
410.72	19554.3
412.493	19424.4
414.263	19503.3
416.033	19545.5
417.805	19462.2
419.574	19495.3
421.345	19482.3
423.114	19398.8
424.884	19446.1
426.652	19421.7
428.421	19421.3
430.188	19366.2
431.955	19296.5
433.724	19342.8
435.49	19311.2
437.258	19223.2
439.023	19266.4
440.788	19201.6
442.555	19161.8
444.32	19199.2
446.084	19147.8
447.85	19139.8
449.613	19132.7
451.376	19166.4
453.141	19147.3
454.904	19087.5
456.666	19144.9
458.429	19056
460.191	18989
461.952	19004.1
463.715	18909.2
465.475	19006.1
467.235	18904.2
468.995	18812.7
470.756	18898.3
472.515	18870.2
474.274	18858.9
476.032	18879.4
477.793	18810.7
479.55	18781
481.308	18749.4
483.065	18831.8
484.823	18743.5
486.58	18823.4
488.336	18801.1
490.091	18820.6
491.847	18711.1
493.604	18734
495.358	18718.2
497.113	18703.5
498.867	18764.9
500.62	18729.1
502.374	18783.6
504.127	18778.9
505.881	18830.7
507.634	18879.2
509.386	18898
511.137	18852.5
512.888	18800.5
514.639	18798.4
516.39	18810.1
518.14	18796.3
519.89	18667.5
521.642	18634.2
523.391	18597.4
525.14	18561.9
526.889	18595.3
528.637	18432.9
530.385	18502.3
532.133	18416.7
533.88	18363
535.627	18297.2
537.373	18282.1
539.12	18293.5
540.866	18190.9
542.611	18203.9
544.357	18149.9
546.101	18116.7
547.846	18077.1
549.59	17993.8
551.334	18096.4
553.078	18000.8
554.821	18083.9
556.564	18057.6
558.307	17953.1
560.049	18037.3
561.789	17952.6
563.53	18001.9
565.272	17974.8
567.013	17994
568.753	17990.6
570.494	18016.2
572.233	18088.5
573.973	18073.8
575.712	18128.1
577.449	18165.4
579.188	18192.7
580.926	18154.5
582.664	18244.1
584.402	18293.5
586.139	18386.8
587.876	18338.5
589.611	18426.4
591.347	18420.4
593.083	18502.2
594.818	18487.9
596.554	18535.9
598.287	18568.4
600.021	18614.1
601.756	18650.3
603.49	18707.7
605.221	18634.3
606.955	18544.4
608.688	18455.2
610.42	18341.5
612.15	18248.9
613.882	18168.6
615.614	18073.5
617.345	18161.2
619.074	18010.3
620.805	18042.6
622.535	18020.5
624.263	17986.9
625.993	17977.7
627.722	17984.1
629.45	17925.4
631.178	17889.7
632.907	17923.1
634.633	17938.3
636.36	17907.5
638.088	17841
639.813	17965.5
641.539	17956.1
643.264	17761.3
644.99	17744.5
646.716	17721.2
648.439	17728.1
650.164	17687.4
651.887	17662.5
653.611	17660.8
655.335	17712
657.057	17595.7
658.781	17573.9
660.502	17600.8
662.225	17570.4
663.945	17542.4
665.667	17491
667.387	17529.8
669.108	17523
670.828	17516.1
672.548	17439.8
674.267	17428.1
675.987	17429.7
677.705	17437.3
679.424	17469.5
681.142	17374.9
682.86	17464.9
684.577	17462.8
686.293	17482.8
688.011	17508.7
689.727	17438.4
691.444	17529.6
693.159	17582.8
694.875	17564.7
696.59	17635.7
698.304	17598.2
700.019	17572.7
701.733	17605
703.448	17623.6
705.16	17668.9
706.872	17653.5
708.586	17595.9
710.298	17718.3
712.01	17784.9
713.723	17807.8
715.433	17883.7
717.144	17939
718.856	18035.7
720.565	18069.8
722.275	18082.2
723.984	17941.1
725.695	18039.7
727.403	17996.1
729.111	17971.1
730.821	17914.3
732.528	17955.4
734.235	17897.5
735.942	17928.4
737.651	17943.1
739.357	17927
741.063	17867.8
742.768	17913.9
744.474	17860.7
746.18	17866.2
747.885	17852.9
749.589	17943.1
751.293	17963.5
752.997	17996.6
754.702	17959.2
756.405	17986.7
758.108	18019.5
759.81	18004.5
761.512	18000
763.214	18010.5
764.915	18053
766.618	18040.8
768.319	17981
770.019	17990.1
771.719	18063.2
773.419	18043.4
775.118	18046
776.817	18119.6
778.516	18005.1
780.214	18087.9
781.913	18032.7
783.61	18081.8
785.308	18084.1
787.005	18143.7
788.702	18138.8
790.398	18173.8
792.095	18213.2
793.791	18296.9
795.486	18319.9
797.181	18380.3
798.876	18454.8
800.571	18485.7
802.265	18595
803.959	18569.2
805.653	18652.3
807.346	18751.6
809.039	18722.4
810.732	18890.2
812.424	18903.5
814.116	19103.5
815.808	19124.8
817.5	19233.8
819.191	19443
820.881	19602.8
822.572	19686.4
824.26	19875.2
825.95	19976.2
827.639	20119.3
829.329	20203.7
831.018	20387.6
832.706	20455
834.394	20643.5
836.08	20727.7
837.768	20786.9
839.455	20870.1
841.142	21104.6
842.829	21036.4
844.513	21132.6
846.199	21124.7
847.885	21119.5
849.57	21204
851.255	21311.1
852.938	21302.8
854.623	21294.6
856.307	21371.7
857.991	21513.4
859.672	21800.8
861.355	21910.8
863.038	21969.3
864.719	22087.3
866.401	22061.5
868.083	22115.5
869.765	22013.4
871.444	21913.5
873.125	21902.3
874.806	21784.1
876.484	21729.2
878.164	21566.2
879.844	21468.4
881.521	21552.4
883.2	21523.5
884.877	21691.7
886.555	21728.4
888.234	21567.3
889.909	21374.3
891.587	21111.2
893.262	20808.3
894.939	20595.7
896.616	20466.6
898.29	20262.4
899.966	20114.8
901.64	19981.1
903.315	19924.5
904.988	19890.3
906.663	19796.7
908.335	19889.3
910.009	19815.4
911.683	19898.5
913.354	19837.6
915.027	19983.5
916.698	19968.1
918.369	19913
920.041	19839.6
921.711	19755.6
923.383	19689.9
925.052	19576.9
926.723	19395
928.391	19359.7
930.062	19326.3
931.73	19138.3
933.399	19108.3
935.067	19092.3
936.734	19039.5
938.403	19035.9
940.069	19132.3
941.737	19172.4
943.403	19207.1
945.069	19305.8
946.736	19303.4
948.401	19303
950.065	19318.2
951.732	19374.7
953.396	19346.2
955.059	19420.3
956.725	19446.6
958.388	19518.2
960.051	19416.2
961.715	19451
963.377	19363.8
965.039	19334.3
966.7	19321.2
968.364	19208.7
970.025	19178.2
971.685	18988.3
973.345	18926.1
975.007	18886.6
976.667	18844.3
978.326	18870.6
979.985	18790.3
981.646	18878.2
983.304	18844.3
984.963	18974.3
986.62	19121.9
988.278	19281.7
989.935	19417.8
991.594	19743.7
993.25	20054
994.907	20550.6
996.563	21016.7
998.218	21557.4
999.874	21931.6
1001.53	21950.3
1003.19	21776.4
1004.84	21550.7
1006.49	21240.3
1008.15	20956.2
1009.8	20603.6
1011.45	20464.3
1013.11	20357.1
1014.76	20285.8
1016.41	20283
1018.06	20166.8
1019.72	20150.7
1021.37	20067.2
1023.02	20066.5
1024.67	19973.8
1026.32	19894.8
1027.97	19873
1029.62	19891.7
1031.27	19813.4
1032.92	19767.4
1034.57	19833.5
1036.22	19847.3
1037.86	19823.6
1039.51	19836.2
1041.16	19878.3
1042.81	19903
1044.45	19945
1046.1	19989.2
1047.75	20167.2
1049.39	20327.1
1051.04	20662.2
1052.68	20893.1
1054.33	21479
1055.97	22114.9
1057.62	22723.6
1059.26	23057.2
1060.91	23215.4
1062.55	22897.7
1064.19	22369.4
1065.83	22056.5
1067.48	21971.9
1069.12	22113.9
1070.76	22244.9
1072.4	22522.4
1074.04	22678
1075.68	22759
1077.32	22759.5
1078.97	22600.3
1080.61	22542.1
1082.24	22356.8
1083.88	22079.2
1085.52	21981.3
1087.16	21633.5
1088.8	21454.7
1090.44	21187.3
1092.08	20809.4
1093.71	20629.4
1095.35	20329.6
1096.99	20151.6
1098.62	19877.5
1100.26	19718.7
1101.9	19599.4
1103.53	19475.8
1105.17	19419.1
1106.8	19462.3
1108.44	19538.6
1110.07	19741.5
1111.7	19976.5
1113.34	20225.1
1114.97	20374.1
1116.6	20602.2
1118.23	20896.3
1119.87	21028.3
1121.5	21259.3
1123.13	21211.7
1124.76	21209.5
1126.39	20766.9
1128.03	20406
1129.65	19754
1131.29	19411
1132.91	19321.4
1134.54	19297.3
1136.17	19408.1
1137.8	19688
1139.43	19985.1
1141.06	20416.8
1142.69	21025.1
1144.31	21846.7
1145.94	22875.5
1147.57	24187.5
1149.19	25550.7
1150.82	26926.7
1152.45	27860.7
1154.07	27840.2
1155.7	26878.5
1157.32	25211.7
1158.95	23365.5
1160.57	21841.4
1162.2	20593.5
1163.82	19911
1165.44	19537.9
1167.07	19345.2
1168.69	19201.4
1170.31	19156.3
1171.94	18983.4
1173.56	18769.7
1175.18	18652.1
1176.8	18650.9
1178.42	18584.5
1180.04	18715.1
1181.66	18826.5
1183.28	18967.5
1184.9	18993.6
1186.52	19098.9
1188.14	19076.5
1189.76	18991.5
1191.38	18875.8
1192.99	18682.7
1194.61	18519.1
1196.23	18337.5
1197.85	18129.4
1199.46	17948.4
1201.08	17827.6
1202.7	17690
1204.31	17613.3
1205.93	17600.1
1207.54	17685.1
1209.16	17646.9
1210.78	17602.8
1212.39	17540.6
1214	17291.8
1215.62	17151.9
1217.23	17029.8
1218.84	16929.3
1220.46	16897.1
1222.07	16919.6
1223.68	16865.9
1225.29	16908.6
1226.91	16935.2
1228.52	17027.3
1230.13	17068.6
1231.74	17111.4
1233.35	17183.2
1234.96	17306.4
1236.57	17316.4
1238.18	17557.3
1239.79	17655.7
1241.4	17800.6
1243	17954.3
1244.61	18136.5
1246.22	18268
1247.83	18441.9
1249.43	18631.9
1251.04	18736.8
1252.65	18806.1
1254.25	19014.2
1255.86	19131.6
1257.47	19227.2
1259.07	19363.5
1260.68	19607.8
1262.28	19628.5
1263.89	19723.9
1265.49	19794.9
1267.09	19702.9
1268.7	19563.9
1270.3	19480.7
1271.9	19429.6
1273.51	19356.9
1275.11	19426.2
1276.71	19479.9
1278.31	19479.5
1279.91	19673.1
1281.52	19721.7
1283.12	19941.5
1284.72	20306.7
1286.32	20750.5
1287.92	21545.5
1289.52	22423.2
1291.12	23522.5
1292.72	24530.3
1294.31	25055.4
1295.91	25323
1297.51	25184.8
1299.11	24968.8
1300.71	24758
1302.3	24277.3
1303.9	23647.6
1305.5	23012.7
1307.09	22342.7
1308.69	21762.4
1310.28	21151.3
1311.88	20621.6
1313.47	20027.8
1315.07	19527.1
1316.66	19195.7
1318.26	18828
1319.85	18474.7
1321.44	18091.5
1323.04	17823
1324.63	17664.9
1326.22	17417.6
1327.82	17209.7
1329.41	16989
1331	16908.1
1332.59	16868.4
1334.18	16734.7
1335.77	16692.5
1337.36	16807.4
1338.95	16637
1340.54	16608.5
1342.13	16501.4
1343.72	16533.2
1345.31	16445.6
1346.9	16469.8
1348.49	16465.1
1350.07	16402.2
1351.66	16367.3
1353.25	16340
1354.84	16295.8
1356.42	16169
1358.01	16211.1
1359.6	16262
1361.18	16207
1362.77	16296.1
1364.35	16372.8
1365.94	16281.9
1367.52	16156
1369.11	16113.6
1370.69	16022
1372.28	15841.1
1373.86	15659.3
1375.44	15549.2
1377.02	15488.2
1378.61	15458.1
1380.19	15369.1
1381.77	15295.7
1383.35	15269.6
1384.93	15259
1386.52	15253.3
1388.1	15311
1389.68	15337.8
1391.26	15286.8
1392.84	15313.5
1394.41	15316.4
1396	15353.4
1397.57	15491.9
1399.15	15444.8
1400.73	15520.9
1402.31	15634.1
1403.89	15736.6
1405.46	15866.2
1407.04	16062.9
1408.62	16381.5
1410.19	16687.8
1411.77	17046.2
1413.35	17289.2
1414.92	17557.9
1416.5	18028.4
1418.07	18235
1419.65	18566.3
1421.22	18960.4
1422.8	19418.5
1424.37	20419.7
1425.94	21623.1
1427.52	23199.5
1429.09	24998
1430.66	26751.6
1432.23	28451.6
1433.8	29710.8
1435.38	30421.2
1436.95	30598.8
1438.52	30240.3
1440.09	29622.7
1441.66	28869.4
1443.23	28241.3
1444.8	27706.2
1446.37	27248.4
1447.94	26870.2
1449.51	26569.4
1451.08	26177
1452.65	25767.9
1454.22	25425.4
1455.78	24896.9
1457.35	24298.5
1458.92	23630.4
1460.48	22804.8
1462.05	22008.1
1463.62	21290.4
1465.18	20529.2
1466.75	19724.9
1468.31	19053.3
1469.88	18429.4
1471.44	17923.7
1473.01	17342.6
1474.57	16934.6
1476.14	16675.3
1477.7	16455.9
1479.26	16213.6
1480.83	16096.6
1482.39	15875.9
1483.95	15890.1
1485.51	15797.9
1487.08	15739.4
1488.64	15736.1
1490.2	15831.9
1491.76	15917.3
1493.32	15918.2
1494.88	16159.1
1496.44	16266
1498	16485.1
1499.56	16785.7
1501.12	17087.4
1502.68	17545.9
1504.24	18041.6
1505.8	18677
1507.35	19402
1508.91	20324.1
1510.47	21190.5
1512.03	22099.5
1513.58	23001
1515.14	23747.3
1516.69	24251.4
1518.25	24429.7
1519.81	24437.1
1521.36	24139
1522.92	23447
1524.47	22375.9
1526.03	21221.5
1527.58	20018.2
1529.13	18851.1
1530.69	17740.8
1532.24	16789.3
1533.79	16078.2
1535.35	15536.4
1536.9	15135.9
1538.45	14866.3
1540	14658.2
1541.55	14421.9
1543.11	14243
1544.66	14134.2
1546.21	14017.8
1547.76	13859.6
1549.31	13830.3
1550.86	13717.4
1552.41	13759.7
1553.96	13683.2
1555.5	13608.1
1557.05	13520.7
1558.6	13563.7
1560.15	13498.3
1561.7	13490.4
1563.24	13474.3
1564.79	13394.4
1566.34	13466.4
1567.88	13472.5
1569.43	13479.8
1570.98	13464.8
1572.52	13487.8
1574.07	13426.4
1575.61	13426
1577.16	13367.7
1578.7	13409.8
1580.25	13448.7
1581.79	13419
1583.34	13456.5
1584.88	13398.3
1586.42	13462.3
1587.96	13456.5
1589.51	13419.8
1591.05	13475.4
1592.59	13441.5
1594.13	13439.4
1595.67	13424
1597.21	13359.9
1598.76	13375.3
1600.3	13348.2
1601.83	13306.6
1603.37	13374.9
1604.92	13336.4
1606.45	13281.1
1607.99	13314.7
1609.53	13271.1
1611.07	13186.6
1612.61	13190
1614.15	13119.3
1615.68	13170.9
1617.22	13121
1618.76	13157.6
1620.29	13155.4
1621.83	13247.5
1623.37	13260.2
1624.9	13321.1
1626.44	13438.6
1627.97	13525.8
1629.51	13623.8
1631.04	13699.8
1632.58	13853.7
1634.11	14009
1635.64	14187.2
1637.18	14290.7
1638.71	14531.1
1640.24	14870.1
1641.78	15298.8
1643.31	15962.1
1644.84	16836.2
1646.37	17810.9
1647.9	18724.4
1649.44	19390.9
1650.97	19542.4
1652.5	19280.2
1654.03	18662.6
1655.56	17824.4
1657.09	16847.7
1658.62	16145.3
1660.14	15554.5
1661.67	15147.3
1663.2	14942.9
1664.73	14786.6
1666.26	14506.2
1667.79	14239.7
1669.31	14009.5
1670.84	13714.7
1672.37	13354.8
1673.89	13241.9
1675.42	13022.9
1676.95	12834.8
1678.47	12757.6
1680	12676.4
1681.52	12570.7
1683.05	12530.1
1684.57	12434.7
1686.1	12342.3
1687.62	12366.6
1689.14	12257.3
1690.67	12249
1692.19	12238.5
1693.71	12132.2
1695.23	12164.9
1696.76	12144
1698.28	12099.4
1699.8	12060.4
1701.32	12021.4
1702.84	12036.7
1704.36	12043.8
1705.88	12012.4
1707.4	11916.9
1708.92	11995.2
1710.44	11999.6
1711.96	11970.6
1713.48	11957.7
1715	12010.5
1716.52	12028.4
1718.04	12109.5
1719.56	12099.2
1721.07	12298.8
1722.59	12379
1724.11	12618.9
1725.63	12707.6
1727.14	12831.1
1728.66	12961.4
1730.17	13164.4
1731.69	13416.3
1733.2	13748.6
1734.72	14135.9
1736.23	14424.9
1737.75	14693.7
1739.26	14789.9
1740.78	14754.1
1742.29	14711.3
1743.8	14661.8
1745.32	14560.8
1746.83	14372.9
1748.34	14238.7
1749.86	13862.8
1751.37	13591.2
1752.88	13270.6
1754.39	12911.3
1755.9	12601.4
1757.41	12378.5
1758.92	12139.6
1760.43	12018.3
1761.94	11816.1
1763.45	11709
1764.96	11567.1
1766.47	11541.6
1767.98	11489
1769.49	11452.8
1771	11434.2
1772.5	11371.5
1774.01	11348.9
1775.52	11344.2
1777.03	11328.4
1778.53	11276.4
1780.04	11298.6
1781.55	11251.5
1783.05	11248.1
1784.56	11155.1
1786.06	11192.1
1787.57	11220.3
1789.07	11211.8
1790.58	11195.3
1792.08	11141
1793.59	11155.3
1795.09	11156.1
1796.59	11131.9
1798.1	11102.7
1799.6	11114
1801.1	11125.4
1802.61	11044.3
1804.11	11078.9
1805.61	11003.8
1807.11	11014.6
1808.61	10976.8
1810.11	11046.9
1811.61	10993.4
1813.11	10985.9
1814.61	10959.9
1816.11	10988.3
1817.61	10892.4
1819.11	10959.5
1820.61	10908.7
1822.11	10884.7
1823.61	10906.9
1825.11	10910.2
1826.6	10881.4
1828.1	10927.5
1829.6	10945.4
1831.1	10828.7
1832.59	10853.5
1834.09	10857.3
1835.59	10884.3
1837.08	10837.7
1838.58	10801.3
1840.07	10854.8
1841.57	10801.3
1843.06	10800.4
1844.56	10877.1
1846.05	10837.6
1847.54	10799.4
1849.04	10815.9
1850.53	10790.4
1852.02	10752.8
1853.52	10742.9
1855.01	10759.3
1856.5	10757.8
1857.99	10756.3
1859.49	10697.7
1860.98	10710.3
1862.47	10672.9
1863.96	10709.8
1865.45	10737.9
1866.94	10678.5
1868.43	10730.4
1869.92	10703.8
1871.41	10685.4
1872.9	10692.1
1874.39	10676.5
1875.88	10634
1877.37	10691.3
1878.85	10647.4
1880.34	10700.3
1881.83	10612.3
1883.32	10581.2
1884.8	10623.3
1886.29	10523.1
1887.78	10541.6
1889.26	10550.1
1890.75	10566.6
1892.23	10563.2
1893.72	10532.3
1895.21	10514
1896.69	10501.5
1898.17	10514.2
1899.66	10484.2
1901.14	10481.9
1902.63	10352.4
1904.11	10370.6
1905.59	10321.1
1907.08	10330.3
1908.56	10320.1
1910.04	10232.1
1911.52	10241.4
1913	10261.1
1914.49	10170.5
1915.97	10161.6
1917.45	10110.9
1918.93	10069.3
1920.41	10041.3
1921.89	10041.6
1923.37	10045.2
1924.85	9977.93
1926.33	9958.83
1927.81	9975.26
1929.29	9934.47
1930.76	9936.54
1932.24	9908.73
1933.72	9843.14
1935.2	9827.05
1936.67	9835.24
1938.15	9779.73
1939.63	9759.27
1941.1	9697.74
1942.58	9667.38
1944.06	9710.64
1945.53	9656.38
1947.01	9642.31
1948.48	9645.21
1949.96	9612.2
1951.43	9521.38
1952.91	9506.73
1954.38	9491.61
1955.86	9465.2
1957.33	9435.34
1958.8	9388.21
1960.27	9373.65
1961.75	9380.41
1963.22	9360.5
1964.69	9309.89
1966.16	9271.17
1967.64	9265.59
1969.11	9235.47
1970.58	9232.79
1972.05	9237.74
1973.52	9204.1
1974.99	9163.23
1976.46	9161.75
1977.93	9132.67
1979.4	9144.43
1980.87	9099.39
1982.34	9067.01
1983.81	9060.34
1985.27	9034.73
1986.74	8998.09
1988.21	8987.3
1989.68	8958.72
1991.14	8917.69
1992.61	8912.53
1994.08	8880.13
1995.55	8839.79
1997.01	8843.33
1998.48	8815.38
1999.94	8793.86
2001.41	8753.26
2002.87	8733
2004.34	8719.18
2005.8	8703.47
2007.27	8689.27
2008.73	8669.99
2010.19	8659.09
2011.66	8643.66
2013.12	8641.96
2014.58	8599.11
2016.05	8600.32
2017.51	8568.25
2018.97	8547.27
2020.43	8511.08
2021.89	8487.02
2023.36	8465.68
2024.82	8472.69
2026.28	8427.63
2027.74	8419
2029.2	8400.78
2030.66	8379.31
2032.12	8362.1
2033.58	8351.23
2035.04	8330.75
2036.49	8301.98
2037.95	8287.6
2039.41	8242.13
2040.87	8246.41
2042.33	8252.55
2043.78	8229.52
2045.24	8211.96
2045.76	8205.7
2047.22	8168.02
2048.69	8175.06
2050.15	8146.56
2051.61	8155.09
2053.07	8127.97
2054.54	8146.84
2056	8150.77
2057.46	8105.57
2058.92	8094.7
2060.38	8119.82
2061.84	8046.67
2063.3	8099.63
2064.76	8076.97
2066.22	8062.98
2067.68	8053.81
2069.14	8073.7
2070.6	8045.38
2072.06	8046.58
2073.52	8025.34
2074.98	8003.19
2076.44	8013.59
2077.89	8009.53
2079.35	8002.69
2080.81	8024.6
2082.27	7978.36
2083.72	7963.52
2085.18	7978.27
2086.63	7962.64
2088.09	7964.1
2089.55	7923.95
2091	7919.53
2092.46	7932.93
2093.91	7865.82
2095.37	7894.58
2096.82	7891.54
2098.28	7907.21
2099.73	7902.37
2101.18	7872.19
2102.64	7891.4
2104.09	7902.9
2105.54	7879.77
2106.99	7830.67
2108.45	7834.15
2109.9	7848.39
2111.35	7833.06
2112.8	7816.02
2114.25	7808.84
2115.71	7804.8
2117.16	7790.75
2118.61	7818.5
2120.06	7813.78
2121.51	7790.14
2122.96	7826.47
2124.4	7791.12
2125.85	7770.38
2127.3	7753.62
2128.75	7751.96
2130.2	7740.41
2131.65	7764.18
2133.09	7733.22
2134.54	7714.72
2135.99	7729.22
2137.44	7706.84
2138.88	7735.56
2140.33	7748.6
2141.78	7673.7
2143.22	7710.06
2144.67	7734.78
2146.11	7668.04
2147.56	7678.68
2149	7686.96
2150.45	7689.13
2151.89	7698.99
2153.34	7662.45
2154.78	7671.31
2156.22	7651.38
2157.67	7638.19
2159.11	7652.07
2160.55	7623.84
2162	7635.47
2163.44	7622.06
2164.88	7623.26
2166.32	7603.36
2167.76	7617.64
2169.2	7621.54
2170.64	7592.86
2172.09	7580.82
2173.53	7599.13
2174.97	7574.35
2176.41	7575.48
2177.85	7592.31
2179.29	7533.56
2180.72	7540.02
2182.16	7537.5
2183.6	7511.06
2185.04	7518.34
2186.48	7498.02
2187.92	7461.93
2189.35	7485.14
2190.79	7476.39
2192.23	7475.26
2193.66	7427.24
2195.1	7437.66
2196.54	7401.05
2197.97	7401.26
2199.41	7388.84
2200.84	7405.66
2202.28	7368.79
2203.71	7356.7
2205.15	7359.4
2206.58	7368.65
2208.02	7362.64
2209.45	7359.01
2210.88	7310.61
2212.32	7330.85
2213.75	7304.2
2215.18	7258.99
2216.62	7267.18
2218.05	7258.53
2219.48	7190.01
2220.91	7219.95
2222.34	7208.51
2223.78	7180.24
2225.21	7215.87
2226.64	7195.07
2228.07	7171.95
2229.5	7197.8
2230.93	7140.72
2232.36	7144.3
2233.79	7131.09
2235.22	7104.91
2236.65	7119.73
2238.07	7063.49
2239.5	7086.34
2240.93	7074.72
2242.36	7032.65
2243.79	7075.13
2245.21	7041.25
2246.64	7016.99
2248.07	7019.69
2249.49	7007.52
2250.92	7003.51
2252.35	7010.81
2253.77	6989.6
2255.2	6944.23
2256.62	6971.61
2258.05	6952.42
2259.47	6946
2260.9	6900.13
2262.32	6935.36
2263.75	6899.28
2265.17	6913.87
2266.59	6849.05
2268.02	6849.47
2269.44	6817.38
2270.86	6843.35
2272.29	6843.22
2273.71	6810.35
2275.13	6802.08
2276.55	6791.54
2277.97	6812.36
2279.39	6786.38
2280.81	6781.37
2282.24	6778.86
2283.66	6760.29
2285.08	6744.08
2286.5	6745.65
2287.92	6738.39
2289.34	6703.26
2290.75	6718.34
2292.17	6705.86
2293.59	6710.44
2295.01	6708.79
2296.43	6702.04
2297.85	6714.71
2299.26	6673.98
2300.68	6684.89
2302.1	6695.45
2303.51	6655.32
2304.93	6640.05
2306.35	6663.84
2307.76	6584.55
2309.18	6605.34
2310.6	6651.92
2312.01	6632.37
2313.43	6587.91
2314.84	6572.83
2316.25	6521.54
2317.67	6533.1
2319.08	6535.58
2320.5	6523.4
2321.91	6554.53
2323.32	6564.14
2324.74	6634.34
2326.15	6713.83
2327.56	6747.7
2328.98	6668.71
2330.39	6480.28
2331.8	6377.78
2333.21	6406.59
2334.62	6373.62
2336.03	6363.3
2337.44	6335.81
2338.85	6380.62
2340.26	6376.77
2341.67	6332.23
2343.08	6347.6
2344.49	6336.19
2345.9	6340.99
2347.31	6324.5
2348.72	6287.51
2350.13	6278.88
2351.54	6266.73
2352.94	6229.51
2354.35	6210.17
2355.76	6215.52
2357.17	6162.78
2358.57	6205.53
2359.98	6144.63
2361.39	6168.18
2362.79	6171.09
2364.2	6128.55
2365.6	6125.21
2367.01	6144.09
2368.41	6116.68
2369.82	6134.97
2371.22	6096.14
2372.63	6088.61
2374.03	6092.09
2375.44	6050.44
2376.84	6063.78
2378.24	6075.81
2379.65	6058.82
2381.05	6034.21
2382.45	6011.14
2383.85	6051.45
2385.26	6018.93
2386.66	6001.76
2388.06	5997.63
2389.46	5984.99
2390.86	5976.14
2392.26	6019.48
2393.66	5939.63
2395.06	5953.69
2396.46	5927.68
2397.86	5954.26
2399.26	5912.22
2400.66	5924.83
2402.06	5953.93
2403.46	5907.15
2404.86	5910.5
2406.26	5909.94
2407.66	5868.64
2409.05	5894.61
2410.45	5883.14
2411.85	5866.63
2413.24	5873.28
2414.64	5859.62
2416.04	5864.32
2417.43	5833.5
2418.83	5832.17
2420.23	5813.65
2421.62	5795.03
2423.02	5815.5
2424.41	5813.94
2425.81	5778.11
2427.2	5811
2428.6	5766.47
2429.99	5780
2431.38	5772.63
2432.78	5750.9
2434.17	5735.4
2435.56	5750.53
2436.96	5727.84
2438.35	5726.79
2439.74	5722.67
2441.13	5667.17
2442.53	5713.63
2443.92	5674.79
2445.31	5671.19
2446.7	5664.33
2448.09	5651.47
2449.48	5624.43
2450.87	5596.25
2452.26	5613.56
2453.65	5612.64
2455.04	5634.76
2456.43	5609.91
2457.82	5589.65
2459.21	5592.77
2460.6	5570.97
2461.98	5573.43
2463.37	5580.52
2464.76	5553.55
2466.15	5538.52
2467.53	5545.23
2468.92	5515.7
2470.31	5511.7
2471.7	5524.89
2473.08	5505.54
2474.47	5508.49
2475.85	5504.4
2477.24	5478.27
2478.63	5454.96
2480.01	5490.43
2481.39	5477.31
2482.78	5456.13
2484.16	5454.31
2485.55	5450.62
2486.93	5435.13
2488.32	5456.32
2489.7	5419.18
2491.08	5434.78
2492.46	5423
2493.85	5376.36
2495.23	5436.85
2496.61	5391.22
2497.99	5409
2499.38	5384.26
2500.76	5395.67
2502.14	5360.77
2503.52	5348.6
2504.9	5358.74
2506.28	5329.46
2507.66	5326.66
2509.04	5324.76
2510.42	5351.43
2511.8	5338.5
2513.18	5322.21
2514.56	5320.67
2515.94	5325.77
2517.31	5312.16
2518.69	5302.06
2520.07	5304.31
2521.45	5325.44
2522.82	5304.75
2524.2	5266.9
2525.58	5272.25
2526.96	5312.24
2528.33	5280.53
2529.71	5247.06
2531.09	5271.04
2532.46	5235.7
2533.84	5232.4
2535.21	5254.14
2536.59	5223.15
2537.96	5167.15
2539.34	5199.16
2540.71	5168.66
2542.08	5186.71
2543.46	5166.14
2544.83	5176.49
2546.2	5176.11
2547.58	5142.9
2548.95	5102.45
2550.32	5115.76
2551.7	5116.43
2553.07	5123.58
2554.44	5116.82
2555.81	5096.98
2557.18	5083.57
2558.55	5116.16
2559.92	5102.12
2561.29	5091.5
2562.66	5090.63
2564.03	5073.89
2565.4	5072.73
2566.77	5075.66
2568.14	5041.39
2569.51	5012.93
2570.88	5049.75
2572.25	5057.7
2573.62	5061.82
2574.99	5038.22
2576.35	5032.93
2577.72	5016.05
2579.09	5059.96
2580.46	5051.65
2581.82	5042.2
2583.19	5053.53
2584.56	5051.59
2585.92	5041.19
2587.29	5053.45
2588.65	5059.88
2590.02	5031.73
2591.38	5032.5
2592.75	5083.33
2594.11	5056.49
2595.48	5049.83
2596.84	5059.5
2598.21	5022.46
2599.57	5027.65
2600.93	5052.52
2602.3	5009.93
2603.66	5004.08
2605.02	5059.71
2606.39	5041.21
2607.75	5017.38
2609.11	5005.27
2610.47	5003.55
2611.83	4996.36
2613.19	4991.31
2614.56	4976.05
2615.92	4958.05
2617.28	4974.56
2618.64	4959.75
2620	4948.04
2621.36	5000.45
2622.72	5000.81
2624.08	4984.97
2625.44	4964.21
2626.8	4959.85
2628.15	4938.62
2629.51	4948.65
2630.87	4939.71
2632.23	4953.04
2633.59	4962.61
2634.94	4967.11
2636.3	4934.62
2637.66	4926.33
2639.01	4981.65
2640.37	4914.1
2641.73	4948.87
2643.08	4961.91
2644.44	4945.18
2645.79	4977.51
2647.15	4974.56
2648.5	4968.88
2649.86	4988.74
2651.21	4978.38
2652.57	4994.39
2653.92	5000.88
2655.28	5022.13
2656.63	5026.67
2657.98	5025.94
2659.33	5024.89
2660.69	5051.6
2662.04	5065.68
2663.39	5024.2
2664.75	5021.13
2666.1	5057.5
2667.45	5037.53
2668.8	5068.76
2670.15	5022.33
2671.5	5048.22
2672.85	5033.67
2674.2	5064.29
2675.55	5019.37
2676.9	5000.04
2678.25	5012.7
2679.6	5019.6
2680.95	5015.49
2682.3	4976.49
2683.65	4994.89
2685	4972.45
2686.35	4946.03
2687.7	4966.13
2689.04	4976.08
2690.39	4983.57
2691.74	4968.37
2693.09	4968.52
2694.43	4947.43
2695.78	4994.84
2697.13	4946.25
2698.47	4994.89
2699.82	4989.71
2701.16	5004.17
2702.51	5043.24
2703.85	5080.02
2705.2	5107.4
2706.54	5144.15
2707.89	5150.79
2709.23	5184.45
2710.58	5171.36
2711.92	5242.94
2713.26	5256.79
2714.61	5264.17
2715.95	5265.56
2717.29	5307.5
2718.64	5337.9
2719.98	5327.56
2721.32	5334.32
2722.66	5316.58
2724	5312.67
2725.35	5334.81
2726.69	5299.7
2728.03	5321
2729.37	5275.65
2730.71	5218.13
2732.05	5175
2733.39	5113.27
2734.73	5085.98
2736.07	5018.45
2737.41	4928
2738.75	4874.95
2740.09	4849.22
2741.42	4842.19
2742.76	4779.38
2744.1	4745.67
2745.44	4723.04
2746.78	4660.54
2748.11	4608.61
2749.45	4616.84
2750.79	4573.22
2752.12	4550.81
2753.46	4567.67
2754.8	4518.78
2756.13	4478.69
2757.47	4517.1
2758.81	4491.8
2760.14	4478.37
2761.47	4448.99
2762.81	4446.23
2764.14	4400.43
2765.48	4434.67
2766.81	4413.83
2768.15	4448.91
2769.48	4434.18
2770.81	4404.55
2772.15	4429.59
2773.48	4395.57
2774.81	4396.52
2776.14	4384.24
2777.48	4407.28
2778.81	4423.91
2780.14	4376.04
2781.47	4374.47
2782.8	4411.07
2784.13	4372.16
2785.47	4388.62
2786.8	4369.43
2788.13	4393.91
2789.46	4384.96
2790.79	4408.97
2792.12	4388.77
2793.44	4448.37
2794.77	4442.13
2796.1	4459.61
2797.43	4476.35
2798.76	4475.17
2800.09	4477.88
2801.42	4507.65
2802.74	4496.91
2804.07	4477.11
2805.4	4495.79
2806.73	4536.5
2808.05	4550.59
2809.38	4545.65
2810.71	4594.42
2812.03	4611.28
2813.36	4657.38
2814.68	4720.66
2816.01	4749.23
2817.33	4781.66
2818.66	4846.77
2819.98	4902.14
2821.31	4979.69
2822.63	5076.99
2823.96	5149.18
2825.28	5267.93
2826.6	5410.97
2827.93	5595.44
2829.25	5746.85
2830.57	6031.8
2831.9	6244.88
2833.22	6596.89
2834.54	7062.82
2835.86	7614.78
2837.19	8279.69
2838.51	9202.21
2839.83	10253.6
2841.15	11564.1
2842.47	12983.6
2843.79	14415.9
2845.11	15795.9
2846.43	16938.9
2847.75	17622.3
2849.07	17869.6
2850.39	17816
2851.71	17480.1
2853.03	17035.1
2854.35	16530.3
2855.66	16179.3
2856.98	15753.9
2858.3	15327.7
2859.62	15021.7
2860.94	14714.6
2862.25	14378.1
2863.57	14253.3
2864.89	14234.7
2866.2	14279
2867.52	14445.5
2868.84	14691.7
2870.15	14992
2871.47	15160.3
2872.78	15371
2874.1	15600
2875.41	15821.6
2876.73	16088.8
2878.04	16419.9
2879.36	16545.2
2880.67	16705.1
2881.98	16591.8
2883.3	16659.2
2884.61	16603
2885.92	16566.9
2887.24	16578.2
2888.55	16571.7
2889.86	16565.4
2891.18	16468.4
2892.49	16497.6
2893.8	16467.9
2895.11	16406.3
2896.42	16447.8
2897.73	16359.1
2899.04	16393
2900.35	16317.4
2901.67	16163.3
2902.97	16139.2
2904.29	16081.5
2905.59	15985.8
2906.9	15964.7
2908.21	15812.6
2909.52	15770.4
2910.83	15764.9
2912.14	15635.4
2913.45	15542.9
2914.76	15546.9
2916.06	15448.8
2917.37	15340.3
2918.68	15371.3
2919.99	15396.4
2921.29	15359
2922.6	15376.4
2923.91	15389.8
2925.21	15380.8
2926.52	15349.4
2927.82	15391
2929.13	15271.2
2930.44	15279.6
2931.74	15228.4
2933.05	15056.8
2934.35	14867.4
2935.65	14631.1
2936.96	14210
2938.26	13756.1
2939.57	13155.2
2940.87	12611
2942.17	11951.7
2943.48	11371.3
2944.78	10825.7
2946.08	10480.8
2947.38	10143.2
2948.69	9895.19
2949.99	9679.35
2951.29	9537.61
2952.59	9415.03
2953.89	9289.31
2955.19	9306.14
2956.49	9143.81
2957.8	9018.51
2959.1	8895.45
2960.4	8675.97
2961.7	8547.05
2962.99	8330.25
2964.29	8153.43
2965.59	7880.87
2966.89	7714.97
2968.19	7491.61
2969.49	7267.6
2970.79	7061.4
2972.09	6848.09
2973.38	6657.44
2974.68	6546.96
2975.98	6374.08
2977.28	6252.59
2978.57	6119.95
2979.87	6029.19
2981.17	5897.39
2982.46	5801.23
2983.76	5735.4
2985.05	5620.2
2986.35	5561.14
2987.65	5539.21
2988.94	5475.75
2990.24	5416.13
2991.53	5418.58
2992.82	5407.95
2994.12	5404.89
2995.41	5387.31
2996.71	5393.94
2998	5409.16
2999.29	5405.91
3000.59	5418.55
3001.88	5396.53
3003.17	5420.56
3004.47	5388.85
3005.76	5337.47
3007.05	5326.24
3008.34	5283.46
3009.63	5168.67
3010.92	5115.47
3012.21	5014.64
3013.5	4954.35
3014.8	4864.28
3016.09	4779.98
3017.38	4701.51
3018.67	4674.94
3019.96	4602.43
3021.25	4560.76
3022.54	4516.07
3023.82	4464.17
3025.11	4416.02
3026.4	4433.48
3027.69	4366.33
3028.98	4343.95
3030.27	4323.58
3031.55	4321.5
3032.84	4291.93
3034.13	4257.08
3035.42	4297.49
3036.7	4261.45
3037.99	4223.81
3039.28	4252.46
3040.56	4245.33
3041.85	4253.01
3043.13	4265.36
3044.42	4210.94
3045.7	4242.49
3046.99	4255.79
3048.27	4235.82
3049.56	4201.91
3050.84	4262.23
3052.13	4275.74
3053.41	4238.13
3054.69	4272.51
3055.98	4287.04
3057.26	4269.34
3058.54	4288.4
3059.83	4299.55
3061.11	4306.15
3062.39	4290.94
3063.67	4307.38
3064.95	4274.91
3066.24	4284.45
3067.52	4302.13
3068.8	4319.18
3070.08	4311.99
3071.36	4281.33
3072.64	4287.53
3073.92	4311.14
3075.2	4293.22
3076.48	4300.31
3077.76	4313.17
3079.04	4309.65
3080.32	4324.65
3081.6	4317.56
3082.88	4279.71
3084.16	4310.62
3085.44	4345.74
3086.71	4308.13
3087.99	4333.94
3089.27	4350.64
3090.55	4351.9
3091.82	4349.1
3093.1	4375.85
3094.38	4364.15
3095.65	4377.71
3096.93	4381.81
3098.21	4420.85
3099.48	4411.87
3100.76	4454.42
3102.03	4427.27
3103.31	4438.35
3104.58	4450
3105.86	4501.37
3107.13	4528.67
3108.41	4540.87
3109.68	4574.41
3110.96	4552.49
3112.23	4575.87
3113.5	4606.34
3114.78	4597.02
3116.05	4609.56
3117.32	4656.33
3118.59	4653.92
3119.87	4634.38
3121.14	4686.55
3122.41	4689.57
3123.68	4712.54
3124.95	4730.91
3126.23	4758.31
3127.5	4796.31
3128.77	4801.47
3130.04	4821.22
3131.31	4856.92
3132.58	4906.6
3133.85	4870.26
3135.12	4875.71
3136.39	4914.51
3137.66	4944.01
3138.93	4975.2
3140.2	4978.12
3141.46	4975.4
3142.73	5031.03
3144	5048.57
3145.27	5050.21
3146.54	5097.84
3147.8	5114.4
3149.07	5140.79
3150.34	5159.42
3151.6	5181.68
3152.87	5209.57
3154.14	5211.69
3155.4	5245.26
3156.67	5269.2
3157.94	5248.22
3159.2	5315.77
3160.47	5299.56
3161.73	5366.92
3163	5354.69
3164.26	5372.32
3165.53	5364.18
3166.79	5408.1
3168.05	5415.93
3169.32	5424.87
3170.58	5475.28
3171.84	5431
3173.11	5470.86
3174.37	5465.49
3175.63	5466.24
3176.9	5466.86
3178.16	5494.95
3179.42	5504.3
3180.68	5534.55
3181.94	5524.43
3183.21	5505.67
3184.47	5552.02
3185.73	5569.06
3186.99	5542.17
3188.25	5588.8
3189.51	5600.36
3190.77	5611.77
3192.03	5579.66
3193.29	5595.74
3194.55	5609.54
3195.81	5609.02
3197.07	5591.3
3198.33	5629.6
3199.58	5624.79
3200.84	5633.88
3202.1	5667.46
3203.36	5674.86
3204.62	5665.51
3205.87	5676.66
3207.13	5655.17
3208.39	5668.55
3209.65	5649.84
3210.9	5665.71
3212.16	5650.79
3213.41	5647.09
3214.67	5667.96
3215.93	5638.03
3217.18	5630.51
3218.44	5652.64
3219.69	5647.49
3220.95	5665.77
3222.2	5642.25
3223.46	5656
3224.71	5653.86
3225.97	5648.18
3227.22	5642.31
3228.47	5641.43
3229.73	5623.9
3230.98	5641.64
3232.23	5646.61
3233.48	5641.06
3234.74	5655.4
3235.99	5621.78
3237.24	5639.58
3238.49	5620.82
3239.75	5599.34
3241	5595.43
3242.25	5611.25
3243.5	5599.44
3244.75	5599.33
3246	5566.59
3247.25	5580.69
3248.5	5566.84
3249.75	5573.04
3251	5549.01
3252.25	5555.4
3253.5	5540.49
3254.75	5546.2
3256	5532.91
3257.25	5515.45
3258.49	5543.98
3259.74	5481.13
3260.99	5485.14
3262.24	5491.3
3263.49	5495.08
3264.73	5460.02
3265.98	5455.22
3267.23	5471.49
3268.47	5480.84
3269.72	5448.83
3270.97	5459.63
3272.21	5436.64
3273.46	5448.52
3274.7	5436.69
3275.95	5445.28
3277.2	5415.89
3278.44	5397.64
3279.69	5397.94
3280.93	5417.84
3282.17	5402.37
3283.42	5390.87
3284.66	5416.31
3285.91	5382.2
3287.15	5397.23
3288.39	5394.49
3289.64	5391.11
3290.88	5376.4
3292.12	5358.66
3292.31	5351
3293.56	5328.24
3294.8	5336.35
3296.05	5346.73
3297.3	5325.77
3298.55	5332.31
3299.79	5336.63
3301.04	5329.87
3302.29	5307.85
3303.54	5301.16
3304.78	5333.25
3306.03	5327.21
3307.27	5331.04
3308.52	5325.44
3309.76	5301.05
3311.01	5302.7
3312.26	5311
3313.5	5306.54
3314.75	5353.54
3315.99	5286.06
3317.23	5291.15
3318.48	5280.1
3319.72	5285.35
3320.97	5294.15
3322.21	5308.11
3323.45	5291.37
3324.7	5299.6
3325.94	5268.07
3327.18	5284.76
3328.42	5300.8
3329.67	5273.12
3330.91	5307.87
3332.15	5271.08
3333.39	5275.37
3334.63	5276.15
3335.87	5299.93
3337.12	5289.93
3338.36	5229.89
3339.6	5308.73
3340.84	5256.65
3342.08	5231.56
3343.32	5271.05
3344.56	5272.22
3345.8	5254.65
3347.04	5269.94
3348.27	5274.46
3349.51	5256.9
3350.75	5249.53
3351.99	5276.06
3353.23	5236.23
3354.47	5238.84
3355.7	5267.95
3356.94	5257.01
3358.18	5272.35
3359.42	5248.65
3360.65	5235.8
3361.89	5243.58
3363.13	5281.01
3364.36	5231.59
3365.6	5247.77
3366.83	5288.22
3368.07	5217.87
3369.31	5260.17
3370.54	5268.99
3371.78	5227.73
3373.01	5258.68
3374.25	5254.21
3375.48	5252.91
3376.71	5229.08
3377.95	5251.84
3379.18	5250.99
3380.42	5223.97
3381.65	5238.2
3382.88	5219.08
3384.12	5264.77
3385.35	5253.58
3386.58	5207.66
3387.81	5205.05
3389.04	5222.13
3390.28	5236.56
3391.51	5228.16
3392.74	5238.56
3393.97	5226.59
3395.2	5253.14
3396.43	5270.18
3397.67	5198.98
3398.9	5222.66
3400.13	5218.83
3401.36	5256.97
3402.58	5198.64
3403.82	5197.93
3405.05	5221.46
3406.27	5209.43
3407.5	5193.77
3408.73	5196.49
3409.96	5200.49
3411.19	5217.92
3412.42	5154.13
3413.64	5178.46
3414.87	5182.71
3416.1	5170.11
3417.33	5173.04
3418.55	5166.56
3419.78	5138.65
3421.01	5119.36
3422.23	5138.84
3423.46	5145.93
3424.69	5110.65
3425.91	5121.21
3427.14	5133.62
3428.36	5099.47
3429.59	5082.77
3430.81	5055.52
3432.04	5070.39
3433.26	5065.53
3434.49	5044.79
3435.71	5027.26
3436.94	5045.47
3438.16	5017.47
3439.39	4997.18
3440.61	4983.89
3441.83	5004.81
3443.05	5009.11
3444.28	5011.64
3445.5	4999.25
3446.72	4946.55
3447.95	4934.24
3449.17	4967.67
3450.39	4921.8
3451.61	4950.66
3452.83	4897.13
3454.05	4922.87
3455.27	4871.72
3456.5	4908.39
3457.71	4901.92
3458.94	4850.34
3460.16	4819.17
3461.38	4818.81
3462.59	4838.43
3463.81	4818.95
3465.03	4761.02
3466.25	4781.95
3467.47	4753.94
3468.69	4738.82
3469.91	4748.88
3471.13	4735.56
3472.35	4704.3
3473.56	4659.35
3474.78	4662.36
3476	4657.07
3477.22	4651.61
3478.43	4612.97
3479.65	4609.63
3480.87	4575.28
3482.08	4568.51
3483.3	4532.04
3484.52	4531.39
3485.73	4512.44
3486.95	4519.81
3488.16	4528.73
3489.38	4485.86
3490.59	4441.65
3491.81	4457.06
3493.02	4427.89
3494.24	4416.68
3495.45	4409.31
3496.67	4364.61
3497.88	4384.01
3499.09	4368.69
