#Acq. time (s)=	7
#Accumulations=	20
#Range (cm-¹)=	400...3500
#Windows=	3
#Auto scanning=	Off
#Autofocus=	Off
#AutoExposure=	Off
#Spike filter=	Multiple accum.
#Delay time (s)=	0
#Binning=	1
#Readout mode=	Signal
#DeNoise=	Off
#ICS correction=	On
#Dark correction=	Off
#Inst. Process=	Off
#Detector Gain=	Best Dynamic Range
#Detector ADC=	45 kHz       
#Detector temperature (°C)=	-60.1
#Instrument=	LabRAM HR Evol
#Detector=	Syncerity OE
#Objective=	x50_VIS_LWD
#Grating=	600 (500nm)
#ND Filter=	50%
#Laser=	532nm_Edge
#Hole=	199.981
#Range=	Visible
#E-Cal_Neon=	0
#StageXY=	75x50mm Scan+
#StageZ=	Z motor
#X (µm)=	0
#Y (µm)=	0
#Z (µm)=	335.4
#Spectral res.(cm-¹)=	12.8
#Full time(mm:ss)=	7:26
#AC=	Calibrated 2025-07-01 10:31
#Project=	
#Sample=	
#Site=	
#Title=	D_1
#Remark=	
#Date=	01.07.2025 12:55 (India Standard Time)
#Acquired=	01.07.2025 12:55:42 (India Standard Time)
#AxisType[0]=Intens
#AxisUnit[0]=Cnt
#AxisType[1]=Spectr
#AxisUnit[1]=1/cm
400.083	14002
401.858	13876.2
403.63	13899
405.405	13898.7
407.176	13874.6
408.949	13899.1
410.72	13878.1
412.493	13846.8
414.263	13838.9
416.033	13866.6
417.805	13898.3
419.574	13859.5
421.345	13912.8
423.114	13889.8
424.884	13886.8
426.652	13932
428.421	13864.6
430.188	13850
431.955	13879.9
433.724	13879.4
435.49	13841.6
437.258	13857.1
439.023	13808.1
440.788	13808.3
442.555	13784.6
444.32	13778.7
446.084	13767.4
447.85	13752.9
449.613	13773.7
451.376	13717.8
453.141	13750
454.904	13722.6
456.666	13735.3
458.429	13718.9
460.191	13705.5
461.952	13677.9
463.715	13697.6
465.475	13697.2
467.235	13641.7
468.995	13630.2
470.756	13651.6
472.515	13659.5
474.274	13610.2
476.032	13630.4
477.793	13598.5
479.55	13615
481.308	13603.1
483.065	13603.2
484.823	13570.3
486.58	13625.4
488.336	13608.4
490.091	13576.1
491.847	13570.7
493.604	13564.6
495.358	13580.7
497.113	13603.7
498.867	13589.3
500.62	13595.5
502.374	13593.2
504.127	13646.1
505.881	13644.9
507.634	13610.7
509.386	13645.3
511.137	13607
512.888	13642
514.639	13666.1
516.39	13634.9
518.14	13590.4
519.89	13600.7
521.642	13601
523.391	13549.6
525.14	13503.8
526.889	13524.4
528.637	13518.6
530.385	13455.1
532.133	13456.7
533.88	13450.4
535.627	13470.1
537.373	13393.7
539.12	13411.9
540.866	13354.7
542.611	13382.7
544.357	13323
546.101	13325.5
547.846	13325.2
549.59	13309.8
551.334	13342.2
553.078	13315.6
554.821	13311.1
556.564	13328.1
558.307	13305.9
560.049	13328.2
561.789	13260.8
563.53	13314.3
565.272	13314
567.013	13290.6
568.753	13279.1
570.494	13313.1
572.233	13289.8
573.973	13300.7
575.712	13342
577.449	13279.2
579.188	13338.6
580.926	13331.2
582.664	13298.3
584.402	13339.8
586.139	13335
587.876	13298.2
589.611	13346.2
591.347	13294.7
593.083	13352.5
594.818	13365.1
596.554	13380.8
598.287	13365.4
600.021	13340.4
601.756	13369.7
603.49	13383.5
605.221	13360.2
606.955	13344.3
608.688	13324.2
610.42	13284.1
612.15	13252.9
613.882	13252.3
615.614	13206.1
617.345	13197.1
619.074	13161.7
620.805	13197.7
622.535	13128.7
624.263	13132.5
625.993	13105.9
627.722	13073.5
629.45	13097.6
631.178	13058.7
632.907	13048.5
634.633	13073.7
636.36	13067.6
638.088	13071.9
639.813	13087.6
641.539	13130.1
643.264	13007.5
644.99	12997.4
646.716	12988.6
648.439	12987.6
650.164	12958.3
651.887	12942.1
653.611	12955.4
655.335	12927.3
657.057	12972.9
658.781	12940.7
660.502	12917.9
662.225	12934.3
663.945	12901.5
665.667	12904.6
667.387	12882.6
669.108	12890.1
670.828	12887.4
672.548	12864.3
674.267	12875.9
675.987	12879.8
677.705	12841.3
679.424	12897.8
681.142	12855
682.86	12874.5
684.577	12869.7
686.293	12858.7
688.011	12857.8
689.727	12830.4
691.444	12891.1
693.159	12840.7
694.875	12902.8
696.59	12870.4
698.304	12895.4
700.019	12895.1
701.733	12867.8
703.448	12882.2
705.16	12855.2
706.872	12841.7
708.586	12839.6
710.298	12853.8
712.01	12828.3
713.723	12841.4
715.433	12842.6
717.144	12843.7
718.856	12850
720.565	12860.5
722.275	12876.8
723.984	12839.9
725.695	12863
727.403	12852.7
729.111	12862.9
730.821	12808.3
732.528	12843.5
734.235	12793.7
735.942	12820.4
737.651	12793.4
739.357	12796.3
741.063	12777.8
742.768	12758.2
744.474	12733.4
746.18	12750.4
747.885	12733.1
749.589	12762
751.293	12791
752.997	12793.3
754.702	12779.9
756.405	12806.8
758.108	12794.1
759.81	12818.4
761.512	12763.4
763.214	12801.5
764.915	12767.3
766.618	12779.6
768.319	12783.3
770.019	12780.3
771.719	12755.4
773.419	12766.2
775.118	12825.9
776.817	12817.4
778.516	12786.5
780.214	12799.9
781.913	12781.7
783.61	12762
785.308	12811.3
787.005	12766.5
788.702	12761.5
790.398	12769.5
792.095	12756.6
793.791	12744.9
795.486	12747.3
797.181	12790
798.876	12816.6
800.571	12813.4
802.265	12796.4
803.959	12837.4
805.653	12818.4
807.346	12811.5
809.039	12823.6
810.732	12820.6
812.424	12793
814.116	12805.8
815.808	12846.3
817.5	12846.6
819.191	12926.9
820.881	12937.1
822.572	12954.4
824.26	13026.5
825.95	13046.5
827.639	13068
829.329	13039.5
831.018	13092.7
832.706	13141.2
834.394	13121.9
836.08	13145.6
837.768	13190.7
839.455	13195.4
841.142	13224.9
842.829	13272.4
844.513	13252.2
846.199	13281.6
847.885	13288.6
849.57	13323.1
851.255	13294.4
852.938	13287.6
854.623	13293.4
856.307	13320.6
857.991	13298.2
859.672	13399.7
861.355	13370.3
863.038	13450.3
864.719	13414.4
866.401	13439.1
868.083	13498.2
869.765	13424.5
871.444	13451.6
873.125	13438.6
874.806	13407
876.484	13380.5
878.164	13329.8
879.844	13297.3
881.521	13281.8
883.2	13263.9
884.877	13328.4
886.555	13300.9
888.234	13301.5
889.909	13241.3
891.587	13199.9
893.262	13124.7
894.939	13038.8
896.616	12979.7
898.29	12962
899.966	12893
901.64	12816.8
903.315	12821.1
904.988	12808.2
906.663	12759
908.335	12778.5
910.009	12758
911.683	12760.4
913.354	12772.4
915.027	12768.6
916.698	12768
918.369	12787.7
920.041	12752.8
921.711	12697
923.383	12725.2
925.052	12667.2
926.723	12607.2
928.391	12574.3
930.062	12551.4
931.73	12519.4
933.399	12505.1
935.067	12521
936.734	12472.5
938.403	12484
940.069	12516.9
941.737	12494.8
943.403	12550.5
945.069	12548.4
946.736	12572.9
948.401	12535.3
950.065	12566
951.732	12584.6
953.396	12580.4
955.059	12567.1
956.725	12579.4
958.388	12590.9
960.051	12634.1
961.715	12592.7
963.377	12561.9
965.039	12607.5
966.7	12542.2
968.364	12538
970.025	12511.7
971.685	12451.9
973.345	12440.8
975.007	12411.1
976.667	12402
978.326	12378.1
979.985	12393.9
981.646	12393.2
983.304	12407.9
984.963	12438.2
986.62	12450.7
988.278	12495.2
989.935	12550.8
991.594	12587.4
993.25	12645.5
994.907	12795.6
996.563	12939.8
998.218	13144.4
999.874	13279.6
1001.53	13404.2
1003.19	13348.2
1004.84	13297.5
1006.49	13119
1008.15	13028.2
1009.8	12910.1
1011.45	12816.5
1013.11	12758.7
1014.76	12695
1016.41	12725.2
1018.06	12661.7
1019.72	12604.1
1021.37	12603.6
1023.02	12590.5
1024.67	12599.2
1026.32	12536.5
1027.97	12509.1
1029.62	12495.2
1031.27	12458.9
1032.92	12468.7
1034.57	12446.7
1036.22	12429.9
1037.86	12383.7
1039.51	12419.7
1041.16	12397.7
1042.81	12413.7
1044.45	12421.5
1046.1	12454
1047.75	12463.1
1049.39	12478
1051.04	12520.1
1052.68	12583.8
1054.33	12703.1
1055.97	12755.7
1057.62	12961.1
1059.26	13058.6
1060.91	13138.7
1062.55	13127.9
1064.19	13038
1065.83	12889.8
1067.48	12855.9
1069.12	12849.8
1070.76	12878.4
1072.4	12897.9
1074.04	12905.2
1075.68	12938.1
1077.32	12965
1078.97	12978
1080.61	12930.7
1082.24	12903.6
1083.88	12868.7
1085.52	12838.1
1087.16	12787
1088.8	12761.7
1090.44	12638.3
1092.08	12554.1
1093.71	12524.1
1095.35	12455.8
1096.99	12364.4
1098.62	12313.4
1100.26	12261.4
1101.9	12216
1103.53	12188.6
1105.17	12156
1106.8	12175.2
1108.44	12173.6
1110.07	12212.7
1111.7	12269.8
1113.34	12330.1
1114.97	12351.4
1116.6	12417.4
1118.23	12440.3
1119.87	12553.6
1121.5	12574.3
1123.13	12638.1
1124.76	12668.3
1126.39	12618.9
1128.03	12527
1129.65	12380.9
1131.29	12298.6
1132.91	12122.5
1134.54	12080.2
1136.17	12148
1137.8	12153.3
1139.43	12223.2
1141.06	12305.1
1142.69	12444.6
1144.31	12631.2
1145.94	12961.9
1147.57	13272.8
1149.19	13648.1
1150.82	14120
1152.45	14507.1
1154.07	14740.7
1155.7	14725.6
1157.32	14375.7
1158.95	13871.7
1160.57	13308.3
1162.2	12764.2
1163.82	12498.2
1165.44	12280.5
1167.07	12157.4
1168.69	12046.8
1170.31	12006.9
1171.94	11985.9
1173.56	11960.2
1175.18	11870.4
1176.8	11835.4
1178.42	11832.8
1180.04	11804.1
1181.66	11813.6
1183.28	11894.7
1184.9	11937.7
1186.52	11911.2
1188.14	11940.5
1189.76	11908.6
1191.38	11879.7
1192.99	11869
1194.61	11816.4
1196.23	11715.8
1197.85	11673.1
1199.46	11612.9
1201.08	11592.2
1202.7	11518.8
1204.31	11471.5
1205.93	11474.8
1207.54	11523.6
1209.16	11465.1
1210.78	11436.1
1212.39	11460.7
1214	11387.9
1215.62	11377.3
1217.23	11277.8
1218.84	11210.9
1220.46	11253.9
1222.07	11203.1
1223.68	11182.1
1225.29	11227
1226.91	11202.3
1228.52	11233.2
1230.13	11263.5
1231.74	11231.6
1233.35	11234.7
1234.96	11261.2
1236.57	11231.1
1238.18	11314.8
1239.79	11308.7
1241.4	11338.2
1243	11386.4
1244.61	11450.1
1246.22	11512.9
1247.83	11552.3
1249.43	11528.2
1251.04	11581.9
1252.65	11582.5
1254.25	11644
1255.86	11718.3
1257.47	11720.2
1259.07	11705.9
1260.68	11796.3
1262.28	11830.4
1263.89	11806.8
1265.49	11840.3
1267.09	11841.5
1268.7	11798.7
1270.3	11724.4
1271.9	11728.5
1273.51	11672.8
1275.11	11629.3
1276.71	11664.3
1278.31	11651.4
1279.91	11673.9
1281.52	11650.9
1283.12	11678.2
1284.72	11743.5
1286.32	11815.9
1287.92	11947.1
1289.52	12079.6
1291.12	12332.7
1292.72	12597.1
1294.31	12764.7
1295.91	12884.1
1297.51	12865.7
1299.11	12857.8
1300.71	12836.2
1302.3	12732
1303.9	12577.1
1305.5	12501.4
1307.09	12321
1308.69	12161.7
1310.28	12049.4
1311.88	11914.9
1313.47	11752.5
1315.07	11652.2
1316.66	11509.3
1318.26	11419.1
1319.85	11339.4
1321.44	11245.7
1323.04	11204.2
1324.63	11150.1
1326.22	11094.4
1327.82	11020
1329.41	11021.6
1331	10950.1
1332.59	10929
1334.18	10923.2
1335.77	10891.8
1337.36	10853.9
1338.95	10920
1340.54	10896
1342.13	10852.9
1343.72	10849.1
1345.31	10814.1
1346.9	10809.3
1348.49	10774.1
1350.07	10813.7
1351.66	10768.9
1353.25	10741.7
1354.84	10711.1
1356.42	10705.5
1358.01	10671.5
1359.6	10646
1361.18	10694.4
1362.77	10658.8
1364.35	10669.8
1365.94	10678.6
1367.52	10680.4
1369.11	10655.9
1370.69	10592.5
1372.28	10563.7
1373.86	10540.5
1375.44	10399.6
1377.02	10415.6
1378.61	10412.5
1380.19	10396.4
1381.77	10374.5
1383.35	10350.6
1384.93	10316.3
1386.52	10361.9
1388.1	10356.1
1389.68	10385.5
1391.26	10351.9
1392.84	10345.3
1394.41	10329.4
1396	10302.3
1397.57	10312.8
1399.15	10329.8
1400.73	10309.4
1402.31	10348.1
1403.89	10372.7
1405.46	10392.3
1407.04	10440.5
1408.62	10427.2
1410.19	10525.6
1411.77	10629.7
1413.35	10687.8
1414.92	10745.3
1416.5	10817.4
1418.07	10897.8
1419.65	11006.8
1421.22	11006.2
1422.8	11123.8
1424.37	11241.1
1425.94	11495.5
1427.52	11762.2
1429.09	12131.5
1430.66	12552.9
1432.23	12955
1433.8	13313
1435.38	13603.3
1436.95	13772.1
1438.52	13753.8
1440.09	13656.6
1441.66	13534
1443.23	13398.6
1444.8	13227.9
1446.37	13108.3
1447.94	13016.3
1449.51	12992
1451.08	12854.7
1452.65	12726.8
1454.22	12659.4
1455.78	12553.9
1457.35	12440.9
1458.92	12283.7
1460.48	12109.7
1462.05	11921.1
1463.62	11787.2
1465.18	11556.3
1466.75	11371
1468.31	11203.1
1469.88	11021.1
1471.44	10865
1473.01	10719.8
1474.57	10595.4
1476.14	10480.5
1477.7	10412.5
1479.26	10324.8
1480.83	10311.2
1482.39	10256.5
1483.95	10211.9
1485.51	10213.5
1487.08	10195.1
1488.64	10191.8
1490.2	10194.2
1491.76	10221.4
1493.32	10255.6
1494.88	10321.2
1496.44	10308.5
1498	10369.4
1499.56	10442
1501.12	10525.3
1502.68	10632.2
1504.24	10750.8
1505.8	10962.1
1507.35	11145.1
1508.91	11373.6
1510.47	11636.7
1512.03	11930
1513.58	12203.8
1515.14	12439
1516.69	12722.8
1518.25	12802.1
1519.81	12896
1521.36	12851.6
1522.92	12743.8
1524.47	12513.3
1526.03	12154.3
1527.58	11797.5
1529.13	11378.9
1530.69	11043.7
1532.24	10675.1
1533.79	10442.7
1535.35	10246.7
1536.9	10099.8
1538.45	9983.88
1540	9869.41
1541.55	9829.17
1543.11	9765.36
1544.66	9679.04
1546.21	9642.67
1547.76	9614.88
1549.31	9596.74
1550.86	9545.06
1552.41	9553.93
1553.96	9525.06
1555.5	9536.51
1557.05	9475.76
1558.6	9459.22
1560.15	9423.23
1561.7	9444.19
1563.24	9463.36
1564.79	9442.08
1566.34	9462.87
1567.88	9418.12
1569.43	9412.46
1570.98	9431
1572.52	9438.36
1574.07	9431.42
1575.61	9416.02
1577.16	9391.68
1578.7	9411.59
1580.25	9408.8
1581.79	9410.16
1583.34	9447.84
1584.88	9440.2
1586.42	9404.68
1587.96	9421.18
1589.51	9354.07
1591.05	9418.88
1592.59	9388.02
1594.13	9414.81
1595.67	9378.99
1597.21	9389.6
1598.76	9372.21
1600.3	9402.71
1601.83	9389.81
1603.37	9375.12
1604.92	9337.96
1606.45	9343.41
1607.99	9328.04
1609.53	9305.09
1611.07	9281.16
1612.61	9293.53
1614.15	9270.7
1615.68	9240.69
1617.22	9239.02
1618.76	9282.09
1620.29	9251.37
1621.83	9262.83
1623.37	9283
1624.9	9272.22
1626.44	9278.68
1627.97	9299.49
1629.51	9322.42
1631.04	9331.91
1632.58	9345.83
1634.11	9402.15
1635.64	9440.58
1637.18	9433.66
1638.71	9516.85
1640.24	9539.4
1641.78	9613.93
1643.31	9727.63
1644.84	9884.75
1646.37	10116.7
1647.9	10291.1
1649.44	10515.8
1650.97	10689.3
1652.5	10682.2
1654.03	10563.9
1655.56	10418.9
1657.09	10200.5
1658.62	9985.36
1660.14	9847.82
1661.67	9685
1663.2	9580.75
1664.73	9530.33
1666.26	9465.54
1667.79	9426.24
1669.31	9387.23
1670.84	9299.42
1672.37	9210.46
1673.89	9162.31
1675.42	9118.98
1676.95	9043.68
1678.47	8968.84
1680	8931.92
1681.52	8919.6
1683.05	8894.48
1684.57	8831.17
1686.1	8835.4
1687.62	8838.59
1689.14	8799.91
1690.67	8758.96
1692.19	8786.47
1693.71	8739.24
1695.23	8734.06
1696.76	8698.59
1698.28	8677.45
1699.8	8664.6
1701.32	8635.77
1702.84	8662.74
1704.36	8625.09
1705.88	8618.76
1707.4	8586.48
1708.92	8586.16
1710.44	8591.72
1711.96	8570.4
1713.48	8570.88
1715	8536.98
1716.52	8556.33
1718.04	8549.92
1719.56	8568.5
1721.07	8597.45
1722.59	8596.8
1724.11	8662.48
1725.63	8644.85
1727.14	8668.02
1728.66	8745.95
1730.17	8721.69
1731.69	8767.27
1733.2	8811.46
1734.72	8905.68
1736.23	8985.22
1737.75	9067.18
1739.26	9110.12
1740.78	9115.55
1742.29	9115.65
1743.8	9074.8
1745.32	9065.98
1746.83	9004.88
1748.34	8977.38
1749.86	8906.83
1751.37	8861.46
1752.88	8799.76
1754.39	8689.69
1755.9	8611.95
1757.41	8537.02
1758.92	8469.36
1760.43	8426.77
1761.94	8372.87
1763.45	8319.68
1764.96	8273.37
1766.47	8290.75
1767.98	8261.14
1769.49	8261.29
1771	8261.1
1772.5	8205.09
1774.01	8238.09
1775.52	8227.8
1777.03	8231.97
1778.53	8196.92
1780.04	8224.6
1781.55	8204.93
1783.05	8163.54
1784.56	8171.03
1786.06	8192.48
1787.57	8155.93
1789.07	8184.47
1790.58	8161.92
1792.08	8118.08
1793.59	8132.4
1795.09	8143.4
1796.59	8127.13
1798.1	8080.87
1799.6	8108.18
1801.1	8092.82
1802.61	8083.79
1804.11	8092.98
1805.61	8053.74
1807.11	8070.19
1808.61	8079.44
1810.11	8103.1
1811.61	8077.43
1813.11	8061.02
1814.61	8041.84
1816.11	8030
1817.61	7997.97
1819.11	8008.38
1820.61	7973.65
1822.11	7992.71
1823.61	7971.95
1825.11	7982.42
1826.6	8012.28
1828.1	7937.7
1829.6	7963.66
1831.1	7958.44
1832.59	7928.84
1834.09	7917.73
1835.59	7934.84
1837.08	7916.56
1838.58	7918.7
1840.07	7958.72
1841.57	7930.14
1843.06	7911.81
1844.56	7955
1846.05	7939.5
1847.54	7911.84
1849.04	7895.33
1850.53	7881.59
1852.02	7843.36
1853.52	7850.31
1855.01	7855.85
1856.5	7857.39
1857.99	7844.67
1859.49	7854.39
1860.98	7832.82
1862.47	7834.32
1863.96	7831.34
1865.45	7844.44
1866.94	7815.62
1868.43	7823.7
1869.92	7812.05
1871.41	7809.8
1872.9	7785.25
1874.39	7786.68
1875.88	7810.36
1877.37	7767.56
1878.85	7744.49
1880.34	7778.82
1881.83	7733.88
1883.32	7754.22
1884.8	7715.72
1886.29	7735.12
1887.78	7702.56
1889.26	7702.69
1890.75	7689.49
1892.23	7698.03
1893.72	7671.69
1895.21	7658.17
1896.69	7609.9
1898.17	7648.99
1899.66	7622.65
1901.14	7599.39
1902.63	7587.66
1904.11	7543.87
1905.59	7511.41
1907.08	7470.42
1908.56	7462.71
1910.04	7452.85
1911.52	7445.6
1913	7392.64
1914.49	7383.57
1915.97	7348.27
1917.45	7319.51
1918.93	7304.72
1920.41	7285.9
1921.89	7279.64
1923.37	7222.45
1924.85	7228.8
1926.33	7185.73
1927.81	7182.21
1929.29	7172.24
1930.76	7129.59
1932.24	7108.88
1933.72	7112.45
1935.2	7063.09
1936.67	7044.6
1938.15	7011.13
1939.63	6981.24
1941.1	6954.43
1942.58	6979.35
1944.06	6966.94
1945.53	6907.06
1947.01	6919.56
1948.48	6875.12
1949.96	6853.51
1951.43	6811.66
1952.91	6805.28
1954.38	6766.19
1955.86	6736.9
1957.33	6725.59
1958.8	6706.45
1960.27	6669.78
1961.75	6680.4
1963.22	6636.36
1964.69	6616.13
1966.16	6603.01
1967.64	6600.8
1969.11	6570.26
1970.58	6559.72
1972.05	6523.99
1973.52	6502.36
1974.99	6495.52
1976.46	6468.19
1977.93	6455.39
1979.4	6439.25
1980.87	6453.87
1982.34	6436.47
1983.81	6383.45
1985.27	6368.52
1986.74	6358.72
1988.21	6350.42
1989.68	6312.07
1991.14	6295.18
1992.61	6272.67
1994.08	6251.54
1995.55	6229.01
1997.01	6211.57
1998.48	6185.74
1999.94	6161.85
2001.41	6133.37
2002.87	6133.14
2004.34	6128.49
2005.8	6111.2
2007.27	6096.55
2008.73	6078.36
2010.19	6060.43
2011.66	6049.87
2013.12	6034.01
2014.58	6010.33
2016.05	6012.56
2017.51	5986.18
2018.97	5969.66
2020.43	5948.88
2021.89	5926.62
2023.36	5904.59
2024.82	5907.02
2026.28	5888.68
2027.74	5878.45
2029.2	5865.23
2030.66	5850.77
2032.12	5828.64
2033.58	5819.53
2035.04	5795.88
2036.49	5791.51
2037.95	5770.95
2039.41	5769.91
2040.87	5767.32
2042.33	5739
2043.78	5733.5
2045.24	5702.09
2045.76	5680.27
2047.22	5705.25
2048.69	5694.97
2050.15	5678.49
2051.61	5684.05
2053.07	5685.23
2054.54	5697.41
2056	5665.39
2057.46	5664.15
2058.92	5667.72
2060.38	5647.88
2061.84	5645.93
2063.3	5661.42
2064.76	5654.75
2066.22	5642.23
2067.68	5656.18
2069.14	5617.74
2070.6	5623.24
2072.06	5614.71
2073.52	5604.89
2074.98	5606.39
2076.44	5599.62
2077.89	5596.71
2079.35	5573.72
2080.81	5603.85
2082.27	5582.37
2083.72	5587.23
2085.18	5570.8
2086.63	5558.34
2088.09	5539.79
2089.55	5551.15
2091	5527.62
2092.46	5529.66
2093.91	5534.67
2095.37	5520.29
2096.82	5516.01
2098.28	5517.11
2099.73	5522.89
2101.18	5500.05
2102.64	5505.8
2104.09	5506.39
2105.54	5494.21
2106.99	5472.47
2108.45	5488.26
2109.9	5479.9
2111.35	5464.3
2112.8	5461.85
2114.25	5451.27
2115.71	5453.76
2117.16	5452.33
2118.61	5457.61
2120.06	5436.68
2121.51	5444.95
2122.96	5429.94
2124.4	5428.33
2125.85	5423.34
2127.3	5405.13
2128.75	5421.2
2130.2	5407.62
2131.65	5395.89
2133.09	5393.11
2134.54	5373.45
2135.99	5398.5
2137.44	5377.17
2138.88	5351.3
2140.33	5385.32
2141.78	5382.1
2143.22	5382.28
2144.67	5375.61
2146.11	5349.43
2147.56	5378.36
2149	5354.75
2150.45	5348.36
2151.89	5338.29
2153.34	5350.73
2154.78	5360.06
2156.22	5339.53
2157.67	5316.47
2159.11	5333.48
2160.55	5336.67
2162	5323.05
2163.44	5289.66
2164.88	5311.77
2166.32	5314.19
2167.76	5333.38
2169.2	5310.66
2170.64	5304.86
2172.09	5275.66
2173.53	5288.17
2174.97	5279.49
2176.41	5269.16
2177.85	5263.23
2179.29	5265.33
2180.72	5263.96
2182.16	5253.62
2183.6	5239.69
2185.04	5259.2
2186.48	5228.68
2187.92	5240.16
2189.35	5238.39
2190.79	5210.13
2192.23	5212.37
2193.66	5196.02
2195.1	5198.2
2196.54	5201.32
2197.97	5188.79
2199.41	5148.53
2200.84	5159
2202.28	5163.59
2203.71	5147.16
2205.15	5159.25
2206.58	5140.04
2208.02	5129.14
2209.45	5146.58
2210.88	5111.67
2212.32	5127.18
2213.75	5063.14
2215.18	5094.11
2216.62	5073.58
2218.05	5083.05
2219.48	5077.89
2220.91	5066.8
2222.34	5062.25
2223.78	5073.67
2225.21	5031.39
2226.64	5037.92
2228.07	5021.02
2229.5	5032.07
2230.93	5021.16
2232.36	5012.89
2233.79	5015.44
2235.22	4986.19
2236.65	5002.56
2238.07	4983.28
2239.5	4972.66
2240.93	4980.98
2242.36	4959.4
2243.79	4970.75
2245.21	4975.82
2246.64	4949.94
2248.07	4924.7
2249.49	4935.74
2250.92	4937.14
2252.35	4908.04
2253.77	4902.45
2255.2	4919.56
2256.62	4876.42
2258.05	4885.22
2259.47	4863.78
2260.9	4862.15
2262.32	4838.28
2263.75	4838.57
2265.17	4834.18
2266.59	4819.88
2268.02	4829.67
2269.44	4804.02
2270.86	4787.96
2272.29	4787.66
2273.71	4779.89
2275.13	4782.27
2276.55	4784.13
2277.97	4767.51
2279.39	4767.2
2280.81	4755.84
2282.24	4742.83
2283.66	4735.96
2285.08	4718.15
2286.5	4694.81
2287.92	4716.4
2289.34	4700.36
2290.75	4730.48
2292.17	4706.4
2293.59	4677.02
2295.01	4670.03
2296.43	4680.66
2297.85	4665.04
2299.26	4661.07
2300.68	4661.61
2302.1	4672.06
2303.51	4639.74
2304.93	4620.57
2306.35	4647.46
2307.76	4642.85
2309.18	4633.19
2310.6	4615.36
2312.01	4613.42
2313.43	4609.94
2314.84	4602.89
2316.25	4600.54
2317.67	4570.06
2319.08	4561.35
2320.5	4550.27
2321.91	4554.28
2323.32	4589.46
2324.74	4632.02
2326.15	4669.83
2327.56	4711.16
2328.98	4735.54
2330.39	4653.13
2331.8	4536.11
2333.21	4487.94
2334.62	4486.22
2336.03	4485.33
2337.44	4459.09
2338.85	4470
2340.26	4464.41
2341.67	4476.2
2343.08	4448.75
2344.49	4436.93
2345.9	4437.33
2347.31	4441.53
2348.72	4428.04
2350.13	4407.18
2351.54	4382.59
2352.94	4385.7
2354.35	4357.75
2355.76	4394.53
2357.17	4374.24
2358.57	4356.44
2359.98	4336.22
2361.39	4313.48
2362.79	4336.58
2364.2	4311.14
2365.6	4319.71
2367.01	4312.91
2368.41	4304.08
2369.82	4304.41
2371.22	4297.68
2372.63	4302.94
2374.03	4285.81
2375.44	4285.73
2376.84	4290.98
2378.24	4291.59
2379.65	4267.61
2381.05	4270.7
2382.45	4268.53
2383.85	4265.2
2385.26	4258.23
2386.66	4240.91
2388.06	4241.87
2389.46	4247.21
2390.86	4221.6
2392.26	4212.64
2393.66	4220.26
2395.06	4194.53
2396.46	4203.68
2397.86	4190.73
2399.26	4202.43
2400.66	4179.22
2402.06	4168.9
2403.46	4154.95
2404.86	4181.86
2406.26	4161.91
2407.66	4154.23
2409.05	4134.27
2410.45	4148.18
2411.85	4134.73
2413.24	4135.46
2414.64	4116.75
2416.04	4126.68
2417.43	4129.24
2418.83	4112.02
2420.23	4107.31
2421.62	4111.83
2423.02	4093.49
2424.41	4088.27
2425.81	4103.86
2427.2	4081.89
2428.6	4069.53
2429.99	4074.3
2431.38	4087.89
2432.78	4066.55
2434.17	4072.04
2435.56	4062.36
2436.96	4030.44
2438.35	4043.28
2439.74	4025.44
2441.13	4047.54
2442.53	4043.62
2443.92	4026.77
2445.31	4014.03
2446.7	4023.07
2448.09	4012.9
2449.48	4004.72
2450.87	4006.48
2452.26	3980.81
2453.65	3987.2
2455.04	3990.6
2456.43	3976.95
2457.82	3974.31
2459.21	3963.72
2460.6	3950.01
2461.98	3955.99
2463.37	3945.93
2464.76	3950.91
2466.15	3917.54
2467.53	3926.22
2468.92	3949.51
2470.31	3928.68
2471.7	3921.61
2473.08	3899.02
2474.47	3895.31
2475.85	3889.8
2477.24	3905.57
2478.63	3892.12
2480.01	3889.62
2481.39	3897.16
2482.78	3869.46
2484.16	3854.32
2485.55	3883.95
2486.93	3875.18
2488.32	3845.66
2489.7	3862.3
2491.08	3859.08
2492.46	3851.56
2493.85	3842.94
2495.23	3832.49
2496.61	3820.97
2497.99	3818.94
2499.38	3815.84
2500.76	3833.58
2502.14	3796.48
2503.52	3813.86
2504.9	3797.12
2506.28	3808.64
2507.66	3798.7
2509.04	3780.89
2510.42	3778.17
2511.8	3777.57
2513.18	3773.04
2514.56	3777.86
2515.94	3776.3
2517.31	3746.43
2518.69	3766.33
2520.07	3753.51
2521.45	3767.91
2522.82	3737.51
2524.2	3740.7
2525.58	3753.9
2526.96	3735.03
2528.33	3759.07
2529.71	3715.85
2531.09	3708.99
2532.46	3711.86
2533.84	3709.95
2535.21	3723.17
2536.59	3690.01
2537.96	3710.69
2539.34	3694.56
2540.71	3681.83
2542.08	3694.56
2543.46	3680.35
2544.83	3677.67
2546.2	3673.27
2547.58	3655.67
2548.95	3667
2550.32	3652.88
2551.7	3637.3
2553.07	3655.75
2554.44	3635.08
2555.81	3621.35
2557.18	3642.98
2558.55	3623.22
2559.92	3620.86
2561.29	3633.61
2562.66	3601.78
2564.03	3615.46
2565.4	3599.5
2566.77	3615.88
2568.14	3593.2
2569.51	3597.38
2570.88	3585.61
2572.25	3585.67
2573.62	3585.1
2574.99	3589.31
2576.35	3585.61
2577.72	3576.56
2579.09	3564.27
2580.46	3577.62
2581.82	3565.95
2583.19	3583.17
2584.56	3594.78
2585.92	3574.37
2587.29	3567.44
2588.65	3588.03
2590.02	3577.59
2591.38	3576.78
2592.75	3563.36
2594.11	3573.75
2595.48	3553.69
2596.84	3568.86
2598.21	3552.37
2599.57	3564.76
2600.93	3545.82
2602.3	3540.93
2603.66	3541.41
2605.02	3553.36
2606.39	3534.67
2607.75	3537.7
2609.11	3524.99
2610.47	3532.13
2611.83	3525.43
2613.19	3546.09
2614.56	3509.1
2615.92	3506.7
2617.28	3499.97
2618.64	3502.27
2620	3494.09
2621.36	3510.06
2622.72	3498.62
2624.08	3470.85
2625.44	3505.65
2626.8	3484.32
2628.15	3486.17
2629.51	3481.16
2630.87	3468.51
2632.23	3478.99
2633.59	3482.41
2634.94	3475.8
2636.3	3466.99
2637.66	3475.4
2639.01	3463.89
2640.37	3463.27
2641.73	3469.06
2643.08	3463.33
2644.44	3460.66
2645.79	3462.52
2647.15	3455.06
2648.5	3439.1
2649.86	3452.18
2651.21	3477.55
2652.57	3467.38
2653.92	3458.5
2655.28	3450.56
2656.63	3458.42
2657.98	3453.39
2659.33	3459.61
2660.69	3452.21
2662.04	3448.71
2663.39	3451.17
2664.75	3469.91
2666.1	3448.29
2667.45	3461.46
2668.8	3463.47
2670.15	3442.96
2671.5	3453.23
2672.85	3463.55
2674.2	3440.51
2675.55	3436.08
2676.9	3413.81
2678.25	3415.57
2679.6	3422.05
2680.95	3422.45
2682.3	3406.56
2683.65	3408.59
2685	3405.88
2686.35	3403.56
2687.7	3393.79
2689.04	3400.19
2690.39	3395.95
2691.74	3392.4
2693.09	3398.03
2694.43	3399.77
2695.78	3401.71
2697.13	3383.1
2698.47	3384.3
2699.82	3380.16
2701.16	3400.71
2702.51	3405
2703.85	3426.34
2705.2	3433.24
2706.54	3440.52
2707.89	3438.62
2709.23	3433.99
2710.58	3434.72
2711.92	3441.41
2713.26	3470.08
2714.61	3461.51
2715.95	3446.84
2717.29	3479.28
2718.64	3467.05
2719.98	3465.54
2721.32	3466.81
2722.66	3467.79
2724	3466.72
2725.35	3470.66
2726.69	3465.31
2728.03	3469.18
2729.37	3459.78
2730.71	3438.15
2732.05	3427.58
2733.39	3406.73
2734.73	3400.08
2736.07	3367.82
2737.41	3346.66
2738.75	3348
2740.09	3329.51
2741.42	3273.05
2742.76	3295.85
2744.1	3264.95
2745.44	3246.76
2746.78	3251.14
2748.11	3233.94
2749.45	3232.25
2750.79	3216.98
2752.12	3191.35
2753.46	3196
2754.8	3192.54
2756.13	3189.9
2757.47	3177.07
2758.81	3172.95
2760.14	3171.74
2761.47	3162.35
2762.81	3156.9
2764.14	3144.72
2765.48	3137.1
2766.81	3135.52
2768.15	3129.92
2769.48	3143.99
2770.81	3143.61
2772.15	3115.87
2773.48	3128.4
2774.81	3124.71
2776.14	3130.06
2777.48	3111.13
2778.81	3111.94
2780.14	3111.05
2781.47	3120.36
2782.8	3081.6
2784.13	3085.54
2785.47	3096.59
2786.8	3087.2
2788.13	3076.25
2789.46	3099.99
2790.79	3098.49
2792.12	3093.52
2793.44	3096.05
2794.77	3101.84
2796.1	3121.77
2797.43	3112.09
2798.76	3120.26
2800.09	3096.38
2801.42	3113.75
2802.74	3096.75
2804.07	3108.5
2805.4	3087.12
2806.73	3103.09
2808.05	3119.8
2809.38	3126.79
2810.71	3133.32
2812.03	3139.36
2813.36	3132.26
2814.68	3146.13
2816.01	3161.7
2817.33	3159.1
2818.66	3182.25
2819.98	3185.61
2821.31	3215.7
2822.63	3224.99
2823.96	3269.39
2825.28	3302.97
2826.6	3317.79
2827.93	3361.46
2829.25	3420.48
2830.57	3471.21
2831.9	3548.04
2833.22	3643.03
2834.54	3761
2835.86	3889.6
2837.19	4084.17
2838.51	4253.16
2839.83	4557.58
2841.15	4904.86
2842.47	5293.58
2843.79	5704.42
2845.11	6109.64
2846.43	6513.71
2847.75	6824.42
2849.07	6984.46
2850.39	7044.75
2851.71	7018.8
2853.03	6893.62
2854.35	6749.29
2855.66	6657.57
2856.98	6498.22
2858.3	6392.77
2859.62	6315.73
2860.94	6180.22
2862.25	6092.39
2863.57	6024.69
2864.89	6008.03
2866.2	5986.38
2867.52	6014.65
2868.84	6081.31
2870.15	6178.13
2871.47	6259.4
2872.78	6306.46
2874.1	6377.21
2875.41	6415.59
2876.73	6533.71
2878.04	6607.22
2879.36	6661.84
2880.67	6740.6
2881.98	6747.15
2883.3	6749.62
2884.61	6742.82
2885.92	6704.03
2887.24	6728.32
2888.55	6707.86
2889.86	6693.54
2891.18	6678.34
2892.49	6701.48
2893.8	6639.32
2895.11	6673.14
2896.42	6646.19
2897.73	6664.66
2899.04	6624.83
2900.35	6629.35
2901.67	6605.35
2902.97	6571.86
2904.29	6566.02
2905.59	6535.88
2906.9	6504.9
2908.21	6503.61
2909.52	6490.73
2910.83	6451.99
2912.14	6455.98
2913.45	6411.32
2914.76	6408.98
2916.06	6411.32
2917.37	6353.55
2918.68	6372.66
2919.99	6334.46
2921.29	6321.78
2922.6	6338.42
2923.91	6344.32
2925.21	6346.55
2926.52	6335.44
2927.82	6330.23
2929.13	6344.98
2930.44	6332.89
2931.74	6309.97
2933.05	6293.72
2934.35	6243.38
2935.65	6184.5
2936.96	6087.3
2938.26	5986.02
2939.57	5824.79
2940.87	5655.44
2942.17	5459.92
2943.48	5280.24
2944.78	5109.92
2946.08	4973.01
2947.38	4810.64
2948.69	4747.86
2949.99	4642.52
2951.29	4581.68
2952.59	4561.75
2953.89	4523.16
2955.19	4480.79
2956.49	4464.37
2957.8	4423.82
2959.1	4409.04
2960.4	4327.07
2961.7	4296.58
2962.99	4242.11
2964.29	4164.85
2965.59	4100.28
2966.89	4045.52
2968.19	3978.15
2969.49	3887.23
2970.79	3822.44
2972.09	3775.67
2973.38	3690.76
2974.68	3652.7
2975.98	3622.21
2977.28	3593.04
2978.57	3540.41
2979.87	3483.79
2981.17	3437.89
2982.46	3420.38
2983.76	3396.39
2985.05	3351.68
2986.35	3341.58
2987.65	3306.47
2988.94	3291.28
2990.24	3266.27
2991.53	3258.52
2992.82	3259.43
2994.12	3240.51
2995.41	3233.23
2996.71	3239.33
2998	3225.1
2999.29	3222.85
3000.59	3220.6
3001.88	3237.23
3003.17	3230.24
3004.47	3246.37
3005.76	3214.02
3007.05	3203.61
3008.34	3179.46
3009.63	3175.59
3010.92	3130.53
3012.21	3124.18
3013.5	3084.86
3014.8	3057.67
3016.09	3045.85
3017.38	3005.16
3018.67	2986
3019.96	2993.19
3021.25	2963.06
3022.54	2969.87
3023.82	2928.23
3025.11	2946.31
3026.4	2906.25
3027.69	2916.15
3028.98	2889.71
3030.27	2894.16
3031.55	2882.31
3032.84	2881.27
3034.13	2866.27
3035.42	2876.77
3036.7	2876.99
3037.99	2847.79
3039.28	2873.11
3040.56	2861.92
3041.85	2862.14
3043.13	2871.47
3044.42	2889.27
3045.7	2876.66
3046.99	2876.62
3048.27	2853.98
3049.56	2869.04
3050.84	2877.9
3052.13	2894.34
3053.41	2890.17
3054.69	2886.2
3055.98	2901.14
3057.26	2904.25
3058.54	2903.23
3059.83	2914.6
3061.11	2895.57
3062.39	2915.19
3063.67	2925.29
3064.95	2920.11
3066.24	2915.86
3067.52	2937.21
3068.8	2914.1
3070.08	2921.07
3071.36	2899.9
3072.64	2901.42
3073.92	2921.22
3075.2	2908.91
3076.48	2912.91
3077.76	2933.05
3079.04	2944.96
3080.32	2935.85
3081.6	2930
3082.88	2953.14
3084.16	2939.82
3085.44	2952.54
3086.71	2969.33
3087.99	2947.6
3089.27	2958.36
3090.55	2955.46
3091.82	2972.19
3093.1	2946.92
3094.38	2990.31
3095.65	2972.87
3096.93	2959.6
3098.21	2995.21
3099.48	2986.26
3100.76	2981.97
3102.03	3023.6
3103.31	3020.76
3104.58	3037.26
3105.86	3038.13
3107.13	3053.81
3108.41	3069.34
3109.68	3063.49
3110.96	3086.91
3112.23	3093.73
3113.5	3090.91
3114.78	3096.06
3116.05	3109.81
3117.32	3140.62
3118.59	3113.29
3119.87	3133.63
3121.14	3150.73
3122.41	3155.97
3123.68	3171.68
3124.95	3153.65
3126.23	3185.2
3127.5	3200.58
3128.77	3195.93
3130.04	3213.68
3131.31	3223.06
3132.58	3253
3133.85	3233.25
3135.12	3278.4
3136.39	3253.77
3137.66	3281.71
3138.93	3275.64
3140.2	3285.97
3141.46	3295.4
3142.73	3321.32
3144	3311.58
3145.27	3336.25
3146.54	3347.66
3147.8	3361.29
3149.07	3371.7
3150.34	3393.41
3151.6	3394.23
3152.87	3408.94
3154.14	3427.03
3155.4	3415.93
3156.67	3464.29
3157.94	3435.21
3159.2	3455.91
3160.47	3459.86
3161.73	3471.07
3163	3485.5
3164.26	3493.8
3165.53	3491.46
3166.79	3512.6
3168.05	3489.5
3169.32	3511.71
3170.58	3535.28
3171.84	3515.43
3173.11	3523.16
3174.37	3513.26
3175.63	3522.54
3176.9	3527.38
3178.16	3534.74
3179.42	3514.8
3180.68	3532.38
3181.94	3542.68
3183.21	3542.38
3184.47	3562.84
3185.73	3546.17
3186.99	3544.82
3188.25	3532.19
3189.51	3552.21
3190.77	3549.59
3192.03	3530.85
3193.29	3552.68
3194.55	3561.35
3195.81	3546.73
3197.07	3540.54
3198.33	3540.58
3199.58	3560.58
3200.84	3532.17
3202.1	3539.56
3203.36	3539.76
3204.62	3559.41
3205.87	3552.12
3207.13	3549.6
3208.39	3542.78
3209.65	3552.17
3210.9	3529.73
3212.16	3527.7
3213.41	3525
3214.67	3527.52
3215.93	3519.8
3217.18	3520.63
3218.44	3526.22
3219.69	3518.06
3220.95	3505.3
3222.2	3516.86
3223.46	3514.47
3224.71	3503.79
3225.97	3505.57
3227.22	3503.76
3228.47	3498.31
3229.73	3494.59
3230.98	3483.46
3232.23	3484
3233.48	3478.2
3234.74	3471.15
3235.99	3471.39
3237.24	3468.25
3238.49	3470.47
3239.75	3464.03
3241	3457.33
3242.25	3448.82
3243.5	3443.16
3244.75	3441.55
3246	3438.14
3247.25	3425.87
3248.5	3434.11
3249.75	3421.06
3251	3428.03
3252.25	3421.68
3253.5	3405.17
3254.75	3386.64
3256	3388.32
3257.25	3378.96
3258.49	3368.96
3259.74	3371.84
3260.99	3356.23
3262.24	3351.94
3263.49	3359.48
3264.73	3345.09
3265.98	3338.34
3267.23	3341.89
3268.47	3336.82
3269.72	3341.6
3270.97	3323.28
3272.21	3331.11
3273.46	3314.48
3274.7	3322.8
3275.95	3306.16
3277.2	3303.05
3278.44	3283.94
3279.69	3282.31
3280.93	3274.06
3282.17	3276.39
3283.42	3269
3284.66	3265.15
3285.91	3264.13
3287.15	3270.4
3288.39	3258.9
3289.64	3244.99
3290.88	3244.89
3292.12	3239.97
3292.31	3235.56
3293.56	3239.66
3294.8	3223.73
3296.05	3228.03
3297.3	3233.11
3298.55	3216.69
3299.79	3214.48
3301.04	3197.5
3302.29	3204.42
3303.54	3194.53
3304.78	3185.62
3306.03	3194.57
3307.27	3195.53
3308.52	3196.55
3309.76	3189.66
3311.01	3201.85
3312.26	3184.82
3313.5	3177.92
3314.75	3164.16
3315.99	3169.1
3317.23	3158.8
3318.48	3160.39
3319.72	3156.14
3320.97	3170.5
3322.21	3180.07
3323.45	3156.22
3324.7	3151.58
3325.94	3144.11
3327.18	3176.13
3328.42	3147.04
3329.67	3144.19
3330.91	3139.32
3332.15	3149.24
3333.39	3141.56
3334.63	3136.5
3335.87	3129.96
3337.12	3137.79
3338.36	3131.84
3339.6	3119.66
3340.84	3123.48
3342.08	3105.65
3343.32	3109.5
3344.56	3090.39
3345.8	3108.85
3347.04	3108.06
3348.27	3108.56
3349.51	3098.21
3350.75	3069.18
3351.99	3098.08
3353.23	3085
3354.47	3091.71
3355.7	3082.85
3356.94	3089.44
3358.18	3094.6
3359.42	3078.52
3360.65	3078
3361.89	3080.71
3363.13	3065.2
3364.36	3076.84
3365.6	3064.2
3366.83	3074.27
3368.07	3061.95
3369.31	3071.49
3370.54	3067.55
3371.78	3058.99
3373.01	3071.08
3374.25	3077.61
3375.48	3055.51
3376.71	3062.91
3377.95	3040.61
3379.18	3051.21
3380.42	3048.43
3381.65	3050.32
3382.88	3030.72
3384.12	3041.39
3385.35	3030.41
3386.58	3032.71
3387.81	3038.82
3389.04	3012.37
3390.28	3022.65
3391.51	3003.12
3392.74	3019.66
3393.97	3027.04
3395.2	3017.8
3396.43	3018.14
3397.67	3023.16
3398.9	3003.72
3400.13	3005.51
3401.36	2999.87
3402.58	3003
3403.82	2996.62
3405.05	2999.35
3406.27	2992.76
3407.5	2985.22
3408.73	2981.88
3409.96	2988.1
3411.19	2966.65
3412.42	2962.76
3413.64	2947.7
3414.87	2947.98
3416.1	2958.09
3417.33	2948.5
3418.55	2949.73
3419.78	2930.29
3421.01	2941.05
3422.23	2914.81
3423.46	2922.02
3424.69	2916.18
3425.91	2917.24
3427.14	2900.05
3428.36	2896.33
3429.59	2902.02
3430.81	2884.86
3432.04	2883.19
3433.26	2862.29
3434.49	2868.23
3435.71	2860.36
3436.94	2854.01
3438.16	2828.2
3439.39	2834.56
3440.61	2833.93
3441.83	2836.09
3443.05	2832.8
3444.28	2821.72
3445.5	2803.43
3446.72	2791.4
3447.95	2786.7
3449.17	2787.15
3450.39	2764.64
3451.61	2759.88
3452.83	2760.59
3454.05	2756.05
3455.27	2746.7
3456.5	2745.89
3457.71	2720.15
3458.94	2724.49
3460.16	2722.91
3461.38	2707.88
3462.59	2684.29
3463.81	2691.4
3465.03	2668.13
3466.25	2678.94
3467.47	2658.15
3468.69	2660.25
3469.91	2650.05
3471.13	2638.27
3472.35	2637.72
3473.56	2620.64
3474.78	2609.36
3476	2598.38
3477.22	2586.37
3478.43	2576.52
3479.65	2548.6
3480.87	2545.49
3482.08	2549.15
3483.3	2535.32
3484.52	2525.99
3485.73	2509.88
3486.95	2493.51
3488.16	2495.27
3489.38	2490.67
3490.59	2464.46
3491.81	2490.66
3493.02	2436.46
3494.24	2440.22
3495.45	2433.01
3496.67	2423.18
3497.88	2389.3
3499.09	2410.3
