#Acq. time (s)=	7
#Accumulations=	20
#Range (cm-¹)=	400...3500
#Windows=	3
#Auto scanning=	Off
#Autofocus=	Off
#AutoExposure=	Off
#Spike filter=	Multiple accum.
#Delay time (s)=	0
#Binning=	1
#Readout mode=	Signal
#DeNoise=	Off
#ICS correction=	On
#Dark correction=	Off
#Inst. Process=	Off
#Detector Gain=	Best Dynamic Range
#Detector ADC=	45 kHz       
#Detector temperature (°C)=	-60.1
#Instrument=	LabRAM HR Evol
#Detector=	Syncerity OE
#Objective=	x50_VIS_LWD
#Grating=	600 (500nm)
#ND Filter=	50%
#Laser=	532nm_Edge
#Hole=	199.981
#Range=	Visible
#E-Cal_Neon=	0
#StageXY=	75x50mm Scan+
#StageZ=	Z motor
#X (µm)=	0
#Y (µm)=	0
#Z (µm)=	724.6
#Spectral res.(cm-¹)=	12.8
#Full time(mm:ss)=	7:26
#AC=	Calibrated 2025-07-01 10:31
#Project=	
#Sample=	
#Site=	
#Title=	D_1
#Remark=	
#Date=	01.07.2025 16:21 (India Standard Time)
#Acquired=	01.07.2025 16:21:36 (India Standard Time)
#AxisType[0]=Intens
#AxisUnit[0]=Cnt
#AxisType[1]=Spectr
#AxisUnit[1]=1/cm
400.083	22451.1
401.858	22278.9
403.63	22310.9
405.405	22344.5
407.176	22367.3
408.949	22417.2
410.72	22422.3
412.493	22433.1
414.263	22448.4
416.033	22502.5
417.805	22507.7
419.574	22509.3
421.345	22493.7
423.114	22556.2
424.884	22537.3
426.652	22586
428.421	22571.7
430.188	22565.4
431.955	22607.5
433.724	22602
435.49	22629.5
437.258	22621.7
439.023	22623.3
440.788	22587.6
442.555	22621.6
444.32	22652.1
446.084	22681.1
447.85	22662.6
449.613	22633.2
451.376	22617.8
453.141	22630.2
454.904	22689.2
456.666	22729.6
458.429	22712.1
460.191	22697.2
461.952	22687.1
463.715	22667.9
465.475	22716
467.235	22722.5
468.995	22740.9
470.756	22766.1
472.515	22772.6
474.274	22769.2
476.032	22810.4
477.793	22852.8
479.55	22833.4
481.308	22842.6
483.065	22850.9
484.823	22874.6
486.58	22878.6
488.336	22880
490.091	22939.3
491.847	22947.8
493.604	22936.5
495.358	22980.7
497.113	23065.6
498.867	23066.7
500.62	23104.5
502.374	23128.7
504.127	23157.3
505.881	23170
507.634	23139.9
509.386	23192.1
511.137	23216.6
512.888	23221.2
514.639	23257.1
516.39	23236.3
518.14	23224.2
519.89	23235.1
521.642	23277.6
523.391	23196.1
525.14	23254.1
526.889	23277
528.637	23270
530.385	23293.9
532.133	23292.5
533.88	23233
535.627	23285.8
537.373	23268.6
539.12	23300.7
540.866	23228.6
542.611	23252
544.357	23243.5
546.101	23297.9
547.846	23315.3
549.59	23281.9
551.334	23291.1
553.078	23333.1
554.821	23393.6
556.564	23411.7
558.307	23395.8
560.049	23450.3
561.789	23402.8
563.53	23464.8
565.272	23479.8
567.013	23506.2
568.753	23496.7
570.494	23475.3
572.233	23495.7
573.973	23520.6
575.712	23534.4
577.449	23560.6
579.188	23593.6
580.926	23568.2
582.664	23589.8
584.402	23610.2
586.139	23644
587.876	23636.4
589.611	23673.9
591.347	23617.5
593.083	23665.1
594.818	23669.9
596.554	23729.1
598.287	23732.4
600.021	23693.1
601.756	23713.7
603.49	23763.7
605.221	23716
606.955	23721.4
608.688	23752.9
610.42	23737.2
612.15	23708.7
613.882	23734.7
615.614	23757.9
617.345	23664.5
619.074	23710
620.805	23709.8
622.535	23671.6
624.263	23662.5
625.993	23705.5
627.722	23650.7
629.45	23658
631.178	23668.1
632.907	23648.1
634.633	23727.4
636.36	23767.2
638.088	23744.5
639.813	23713.8
641.539	23802.8
643.264	23736.1
644.99	23701
646.716	23703.2
648.439	23710.9
650.164	23751.1
651.887	23730.8
653.611	23748.6
655.335	23764.6
657.057	23756.8
658.781	23873.8
660.502	23760.4
662.225	23820.6
663.945	23795.8
665.667	23856.4
667.387	23846.8
669.108	23907.2
670.828	23861.2
672.548	23888.1
674.267	23883.8
675.987	23876.6
677.705	23881.4
679.424	23883.7
681.142	23949.5
682.86	24035
684.577	23969.4
686.293	23994.7
688.011	23971.9
689.727	24005.9
691.444	24045.4
693.159	24019.1
694.875	24064.9
696.59	24052.4
698.304	24069.6
700.019	24112.8
701.733	24077
703.448	24109
705.16	24048.2
706.872	24075.9
708.586	24000.9
710.298	24020.3
712.01	23984.4
713.723	24028.7
715.433	24017.5
717.144	24046.1
718.856	24078.9
720.565	24079.8
722.275	24151.9
723.984	24084.3
725.695	24159.3
727.403	24051.3
729.111	24132.5
730.821	24108.1
732.528	24145.4
734.235	24162.4
735.942	24144.3
737.651	24182.5
739.357	24096.9
741.063	24116.5
742.768	24143.1
744.474	24057.8
746.18	24054.1
747.885	24203.2
749.589	24185.2
751.293	24212.4
752.997	24277.2
754.702	24224.7
756.405	24280.7
758.108	24304.5
759.81	24339.6
761.512	24289.9
763.214	24263.5
764.915	24347.4
766.618	24326.9
768.319	24435.3
770.019	24363.5
771.719	24375
773.419	24378.5
775.118	24407.5
776.817	24494.6
778.516	24443.4
780.214	24429
781.913	24494.1
783.61	24400.4
785.308	24499.8
787.005	24454.9
788.702	24435.9
790.398	24421.3
792.095	24445.9
793.791	24431.3
795.486	24417.6
797.181	24428.3
798.876	24463
800.571	24466.6
802.265	24461.9
803.959	24535.8
805.653	24526.4
807.346	24519.7
809.039	24438.6
810.732	24391.2
812.424	24371.1
814.116	24393.4
815.808	24393.5
817.5	24447.3
819.191	24461.9
820.881	24457.2
822.572	24478.2
824.26	24633.6
825.95	24579.8
827.639	24530.5
829.329	24557
831.018	24536.8
832.706	24555.9
834.394	24527.8
836.08	24571.4
837.768	24566
839.455	24597.8
841.142	24657.1
842.829	24711.6
844.513	24679.4
846.199	24717.7
847.885	24726
849.57	24694.7
851.255	24742.4
852.938	24719.4
854.623	24768.4
856.307	24703.8
857.991	24816.3
859.672	24812.8
861.355	24768
863.038	24789.9
864.719	24746.1
866.401	24786.1
868.083	24769.6
869.765	24781.3
871.444	24762
873.125	24756.9
874.806	24838
876.484	24832.7
878.164	24787.9
879.844	24739.7
881.521	24761.4
883.2	24790.5
884.877	24764
886.555	24760.8
888.234	24766.3
889.909	24749.5
891.587	24785.7
893.262	24708.2
894.939	24696.6
896.616	24668.9
898.29	24733.3
899.966	24595.9
901.64	24668.6
903.315	24674.9
904.988	24572.1
906.663	24564.5
908.335	24620
910.009	24612.2
911.683	24571.3
913.354	24551.9
915.027	24579.7
916.698	24528
918.369	24477.4
920.041	24549.2
921.711	24508.7
923.383	24596.1
925.052	24553.1
926.723	24454.4
928.391	24464.9
930.062	24523.9
931.73	24399.6
933.399	24435.9
935.067	24418.9
936.734	24462.2
938.403	24468.9
940.069	24577
941.737	24530.9
943.403	24547.4
945.069	24536.1
946.736	24530.7
948.401	24535.7
950.065	24557
951.732	24547.2
953.396	24515.3
955.059	24558.7
956.725	24546.5
958.388	24503.6
960.051	24619.1
961.715	24555
963.377	24639.2
965.039	24686.4
966.7	24613.6
968.364	24600.6
970.025	24606.6
971.685	24566.9
973.345	24570
975.007	24583.4
976.667	24573.5
978.326	24560.5
979.985	24588
981.646	24598.8
983.304	24649.5
984.963	24631.8
986.62	24653.3
988.278	24596.3
989.935	24647.5
991.594	24727.7
993.25	24707.1
994.907	24783.5
996.563	24813.3
998.218	24938.6
999.874	24928.3
1001.53	24914.1
1003.19	24812.4
1004.84	24811.3
1006.49	24755.8
1008.15	24767.2
1009.8	24682.8
1011.45	24745.6
1013.11	24674.2
1014.76	24709.3
1016.41	24751.3
1018.06	24629.4
1019.72	24630
1021.37	24636.4
1023.02	24663.2
1024.67	24589.4
1026.32	24574.9
1027.97	24592.4
1029.62	24574.7
1031.27	24550.9
1032.92	24557.3
1034.57	24539.4
1036.22	24565.2
1037.86	24520.1
1039.51	24526.7
1041.16	24546.8
1042.81	24546.7
1044.45	24491.4
1046.1	24474.9
1047.75	24553.6
1049.39	24571
1051.04	24620
1052.68	24596.6
1054.33	24689.8
1055.97	24725
1057.62	24758
1059.26	24775.4
1060.91	24787.9
1062.55	24736.2
1064.19	24663.4
1065.83	24658.2
1067.48	24677.7
1069.12	24687.8
1070.76	24649.8
1072.4	24687.6
1074.04	24716.8
1075.68	24689.8
1077.32	24687.5
1078.97	24716.9
1080.61	24645.8
1082.24	24687.3
1083.88	24609.2
1085.52	24642
1087.16	24587.6
1088.8	24562
1090.44	24540.1
1092.08	24518.7
1093.71	24487.6
1095.35	24443.6
1096.99	24412
1098.62	24386.3
1100.26	24401.2
1101.9	24400.5
1103.53	24348.5
1105.17	24282.4
1106.8	24366.2
1108.44	24328.3
1110.07	24347.1
1111.7	24390.6
1113.34	24481.3
1114.97	24515
1116.6	24427.2
1118.23	24435.8
1119.87	24501.9
1121.5	24480.1
1123.13	24427.8
1124.76	24474.7
1126.39	24346.2
1128.03	24380.7
1129.65	24299.5
1131.29	24285.2
1132.91	24227.2
1134.54	24191.6
1136.17	24192.8
1137.8	24112.4
1139.43	24190.5
1141.06	24126.9
1142.69	24205
1144.31	24288
1145.94	24339.8
1147.57	24449.1
1149.19	24512.2
1150.82	24644.4
1152.45	24735
1154.07	24709.1
1155.7	24555.6
1157.32	24465.1
1158.95	24362.5
1160.57	24272.8
1162.2	24167.6
1163.82	24098.1
1165.44	24043.8
1167.07	24041
1168.69	24081.3
1170.31	23987.8
1171.94	24012.3
1173.56	23957.5
1175.18	23991.7
1176.8	23938.7
1178.42	23945.1
1180.04	23925.4
1181.66	23909.5
1183.28	23899.8
1184.9	23938.4
1186.52	23917.9
1188.14	23908.4
1189.76	23885.2
1191.38	23885.6
1192.99	23871.5
1194.61	23864.3
1196.23	23851.4
1197.85	23872.2
1199.46	23765.8
1201.08	23771.7
1202.7	23747
1204.31	23764.1
1205.93	23793.7
1207.54	23830.2
1209.16	23800.9
1210.78	23776.2
1212.39	23767.6
1214	23717.9
1215.62	23710.6
1217.23	23743.9
1218.84	23689.3
1220.46	23715.1
1222.07	23717
1223.68	23746.7
1225.29	23722.3
1226.91	23766.8
1228.52	23767.5
1230.13	23777.1
1231.74	23712.4
1233.35	23726.3
1234.96	23727.9
1236.57	23639.8
1238.18	23710.3
1239.79	23704.8
1241.4	23783.5
1243	23768.8
1244.61	23814.4
1246.22	23854.1
1247.83	23839.7
1249.43	23795.4
1251.04	23727.8
1252.65	23771.5
1254.25	23841.9
1255.86	23756.8
1257.47	23791.3
1259.07	23757.2
1260.68	23818.1
1262.28	23838.7
1263.89	23840
1265.49	23761.3
1267.09	23776.9
1268.7	23685.5
1270.3	23647.8
1271.9	23726.2
1273.51	23635.6
1275.11	23623.3
1276.71	23615.7
1278.31	23677
1279.91	23612.7
1281.52	23619
1283.12	23607.8
1284.72	23661.5
1286.32	23647.6
1287.92	23699.7
1289.52	23773.1
1291.12	23776.7
1292.72	23864.8
1294.31	23884.6
1295.91	23957.5
1297.51	23901.2
1299.11	23853.2
1300.71	23941
1302.3	23871.6
1303.9	23801
1305.5	23768.7
1307.09	23680.2
1308.69	23623.5
1310.28	23645.4
1311.88	23597.5
1313.47	23438
1315.07	23393.1
1316.66	23388.3
1318.26	23363.7
1319.85	23328.4
1321.44	23299.4
1323.04	23265.7
1324.63	23291.1
1326.22	23272.3
1327.82	23254.4
1329.41	23227.4
1331	23278.9
1332.59	23258.7
1334.18	23224.9
1335.77	23202.2
1337.36	23241.5
1338.95	23227
1340.54	23234.5
1342.13	23206.3
1343.72	23117.6
1345.31	23106.3
1346.9	23102.8
1348.49	23107.9
1350.07	23115.1
1351.66	23097.4
1353.25	23076.4
1354.84	23004.6
1356.42	22948.6
1358.01	23004.5
1359.6	22934
1361.18	22907.9
1362.77	22938
1364.35	22909.8
1365.94	22910.9
1367.52	22860.5
1369.11	22858.3
1370.69	22830.8
1372.28	22767.6
1373.86	22775.2
1375.44	22656.6
1377.02	22655.9
1378.61	22693.5
1380.19	22614.7
1381.77	22600.2
1383.35	22568.8
1384.93	22556
1386.52	22554.2
1388.1	22630.8
1389.68	22650.3
1391.26	22552.4
1392.84	22587.4
1394.41	22593.1
1396	22598.5
1397.57	22528.9
1399.15	22521.8
1400.73	22522.4
1402.31	22585.2
1403.89	22565.4
1405.46	22474.5
1407.04	22546.5
1408.62	22519.1
1410.19	22539.4
1411.77	22591.9
1413.35	22527.3
1414.92	22643.5
1416.5	22672
1418.07	22638.6
1419.65	22692
1421.22	22614.4
1422.8	22672.5
1424.37	22755.7
1425.94	22803.9
1427.52	22902.9
1429.09	23047.2
1430.66	23173.9
1432.23	23301.9
1433.8	23399.6
1435.38	23453.7
1436.95	23514.6
1438.52	23446
1440.09	23484.9
1441.66	23420.8
1443.23	23317.7
1444.8	23330.6
1446.37	23260.1
1447.94	23226.6
1449.51	23173.6
1451.08	23125.7
1452.65	22999.7
1454.22	23005.6
1455.78	22970.4
1457.35	22888.1
1458.92	22853.8
1460.48	22774.5
1462.05	22735.3
1463.62	22612.4
1465.18	22543.6
1466.75	22393.2
1468.31	22406.5
1469.88	22302
1471.44	22277.4
1473.01	22125.9
1474.57	22018.6
1476.14	22009.8
1477.7	22003.5
1479.26	21875.3
1480.83	21858.4
1482.39	21834.2
1483.95	21861.7
1485.51	21835.5
1487.08	21742.3
1488.64	21783.8
1490.2	21771.8
1491.76	21761.4
1493.32	21818.9
1494.88	21868.5
1496.44	21872.7
1498	21836.2
1499.56	21820.8
1501.12	21810.9
1502.68	21770.8
1504.24	21871.5
1505.8	21898.7
1507.35	21924.1
1508.91	21968.2
1510.47	21984.1
1512.03	22064.4
1513.58	22114.9
1515.14	22082.4
1516.69	22146.8
1518.25	22212.3
1519.81	22096.2
1521.36	22116.6
1522.92	22096.4
1524.47	21954.7
1526.03	21899.1
1527.58	21794.1
1529.13	21701.5
1530.69	21589
1532.24	21545.9
1533.79	21543.2
1535.35	21454.8
1536.9	21427.7
1538.45	21461.4
1540	21397
1541.55	21450.8
1543.11	21409
1544.66	21405.3
1546.21	21379.9
1547.76	21352
1549.31	21324.6
1550.86	21275
1552.41	21304
1553.96	21260.9
1555.5	21236.7
1557.05	21221.4
1558.6	21288
1560.15	21167.4
1561.7	21258.1
1563.24	21260.7
1564.79	21259.8
1566.34	21278.2
1567.88	21202.9
1569.43	21240.7
1570.98	21199.3
1572.52	21215
1574.07	21173.7
1575.61	21122.3
1577.16	21145.5
1578.7	21163.4
1580.25	21148
1581.79	21098.1
1583.34	21089.8
1584.88	21095.1
1586.42	21117.5
1587.96	21094.8
1589.51	21029.1
1591.05	21077.6
1592.59	21064.7
1594.13	21032.6
1595.67	20989.5
1597.21	21027.4
1598.76	20991.8
1600.3	21090.9
1601.83	21026.2
1603.37	20986.7
1604.92	20940.7
1606.45	21007.4
1607.99	20899.1
1609.53	20949.2
1611.07	20861.8
1612.61	20832
1614.15	20818.8
1615.68	20815.7
1617.22	20778.9
1618.76	20755.6
1620.29	20745
1621.83	20748.4
1623.37	20737.8
1624.9	20743.2
1626.44	20736.4
1627.97	20779.3
1629.51	20730.7
1631.04	20708.9
1632.58	20765.5
1634.11	20773.7
1635.64	20756.9
1637.18	20692
1638.71	20786.2
1640.24	20790
1641.78	20784.9
1643.31	20748.5
1644.84	20838.5
1646.37	20928.8
1647.9	20993.1
1649.44	21038
1650.97	21064
1652.5	21002.6
1654.03	20950.4
1655.56	20901.5
1657.09	20761.5
1658.62	20749.3
1660.14	20669
1661.67	20597.5
1663.2	20627
1664.73	20557.5
1666.26	20507.9
1667.79	20540.5
1669.31	20549.7
1670.84	20468.1
1672.37	20436.7
1673.89	20422.7
1675.42	20327
1676.95	20246.7
1678.47	20258
1680	20226.6
1681.52	20166.4
1683.05	20146.4
1684.57	20055
1686.1	20114.8
1687.62	20013
1689.14	20025.1
1690.67	19993.6
1692.19	19984.3
1693.71	20005.8
1695.23	19932.4
1696.76	19919.8
1698.28	19885.8
1699.8	19826.1
1701.32	19781.9
1702.84	19791
1704.36	19736.5
1705.88	19767
1707.4	19719
1708.92	19739.6
1710.44	19685.2
1711.96	19647.2
1713.48	19668.8
1715	19671.6
1716.52	19586.6
1718.04	19610.3
1719.56	19575
1721.07	19598.5
1722.59	19559.9
1724.11	19589.7
1725.63	19600.6
1727.14	19578.5
1728.66	19580.3
1730.17	19622.3
1731.69	19603.9
1733.2	19578.3
1734.72	19624.7
1736.23	19588.6
1737.75	19623
1739.26	19622.6
1740.78	19658
1742.29	19623.7
1743.8	19567.1
1745.32	19611.6
1746.83	19533.1
1748.34	19529.7
1749.86	19530.3
1751.37	19486.8
1752.88	19413.3
1754.39	19387.6
1755.9	19309
1757.41	19268.1
1758.92	19271.4
1760.43	19220.3
1761.94	19215.7
1763.45	19225.9
1764.96	19138.8
1766.47	19114
1767.98	19126.1
1769.49	19130.4
1771	19132.7
1772.5	19110.5
1774.01	19064.4
1775.52	19053.4
1777.03	19043.1
1778.53	19057.2
1780.04	19114.1
1781.55	19019
1783.05	19001.8
1784.56	19008
1786.06	18999
1787.57	19021.4
1789.07	18999.8
1790.58	18957.1
1792.08	18933.9
1793.59	18903.6
1795.09	18952.9
1796.59	18899.7
1798.1	18895.2
1799.6	18834.2
1801.1	18866.9
1802.61	18774.6
1804.11	18816.1
1805.61	18809.5
1807.11	18735.6
1808.61	18754.1
1810.11	18739.6
1811.61	18753
1813.11	18730.6
1814.61	18701.3
1816.11	18704
1817.61	18691.8
1819.11	18681.3
1820.61	18623.9
1822.11	18579.6
1823.61	18635.6
1825.11	18581.3
1826.6	18635.3
1828.1	18566.7
1829.6	18612.5
1831.1	18570.4
1832.59	18559.9
1834.09	18541.9
1835.59	18483.2
1837.08	18443.5
1838.58	18420.8
1840.07	18527.4
1841.57	18500.9
1843.06	18496.7
1844.56	18473.6
1846.05	18449.5
1847.54	18468.7
1849.04	18427.4
1850.53	18414.1
1852.02	18359.6
1853.52	18386.2
1855.01	18323.6
1856.5	18310.1
1857.99	18326.5
1859.49	18311.1
1860.98	18269.9
1862.47	18274.9
1863.96	18238.2
1865.45	18285.9
1866.94	18213.2
1868.43	18242.9
1869.92	18183.9
1871.41	18251.6
1872.9	18196.4
1874.39	18184
1875.88	18208.3
1877.37	18203
1878.85	18160.6
1880.34	18142
1881.83	18087.2
1883.32	18062
1884.8	18008.6
1886.29	18055.9
1887.78	18005.8
1889.26	17986.4
1890.75	18009
1892.23	17968.8
1893.72	17989.6
1895.21	17884.7
1896.69	17903.8
1898.17	17873.2
1899.66	17774.8
1901.14	17797.4
1902.63	17687.7
1904.11	17641.8
1905.59	17613.4
1907.08	17521.8
1908.56	17503.3
1910.04	17440.1
1911.52	17372.1
1913	17317.1
1914.49	17265.4
1915.97	17226.1
1917.45	17096.3
1918.93	17073.2
1920.41	16970
1921.89	16976.9
1923.37	16866.9
1924.85	16870.6
1926.33	16803.4
1927.81	16741
1929.29	16705.4
1930.76	16678.8
1932.24	16634.4
1933.72	16579.5
1935.2	16509.3
1936.67	16461.3
1938.15	16378.7
1939.63	16353.4
1941.1	16255.5
1942.58	16246.1
1944.06	16182
1945.53	16178.9
1947.01	16123.2
1948.48	16049.4
1949.96	16002.8
1951.43	15893.1
1952.91	15846
1954.38	15799.1
1955.86	15718.8
1957.33	15641.8
1958.8	15639.9
1960.27	15586
1961.75	15562.7
1963.22	15491.7
1964.69	15451.4
1966.16	15416.2
1967.64	15389.9
1969.11	15329.7
1970.58	15276.3
1972.05	15264.3
1973.52	15192
1974.99	15160.4
1976.46	15109.5
1977.93	15049.8
1979.4	15024.8
1980.87	14988.5
1982.34	14940.4
1983.81	14886.9
1985.27	14855.3
1986.74	14818.9
1988.21	14756.4
1989.68	14700.9
1991.14	14655.9
1992.61	14598.3
1994.08	14536.3
1995.55	14483.2
1997.01	14460.6
1998.48	14418.6
1999.94	14351.6
2001.41	14292.2
2002.87	14258.2
2004.34	14221.2
2005.8	14195.9
2007.27	14156.6
2008.73	14147.4
2010.19	14113.1
2011.66	14068
2013.12	14034.3
2014.58	14014
2016.05	13970.9
2017.51	13918.5
2018.97	13854.8
2020.43	13834.8
2021.89	13780.4
2023.36	13713.3
2024.82	13694.8
2026.28	13667.1
2027.74	13618.1
2029.2	13603.1
2030.66	13588.2
2032.12	13565.9
2033.58	13491
2035.04	13455.8
2036.49	13441
2037.95	13424.9
2039.41	13379.6
2040.87	13328
2042.33	13297.3
2043.78	13299.2
2045.24	13266.2
2045.76	13239.3
2047.22	13203.7
2048.69	13256.7
2050.15	13210.5
2051.61	13220.1
2053.07	13180.5
2054.54	13202.7
2056	13183.1
2057.46	13152.4
2058.92	13181.9
2060.38	13126.4
2061.84	13091.1
2063.3	13129.1
2064.76	13103.5
2066.22	13146.9
2067.68	13065.4
2069.14	13097.1
2070.6	13066.4
2072.06	13061.4
2073.52	13054.6
2074.98	13026.5
2076.44	12983.7
2077.89	13026.1
2079.35	12987.1
2080.81	12990.8
2082.27	13006.7
2083.72	13010.2
2085.18	12966.7
2086.63	12961.2
2088.09	12960.5
2089.55	12926
2091	12940.7
2092.46	12926.8
2093.91	12891.1
2095.37	12929.5
2096.82	12888.1
2098.28	12888.9
2099.73	12852.3
2101.18	12868.2
2102.64	12798.5
2104.09	12817.4
2105.54	12833.7
2106.99	12777.1
2108.45	12800.1
2109.9	12781.2
2111.35	12783
2112.8	12732.8
2114.25	12746.3
2115.71	12736.5
2117.16	12705.5
2118.61	12732.9
2120.06	12722.2
2121.51	12714.3
2122.96	12713.1
2124.4	12705.9
2125.85	12702.5
2127.3	12725.3
2128.75	12657.8
2130.2	12672.5
2131.65	12654.3
2133.09	12649.6
2134.54	12653
2135.99	12672
2137.44	12621.7
2138.88	12631.2
2140.33	12647.2
2141.78	12627.6
2143.22	12604.5
2144.67	12590.7
2146.11	12578.7
2147.56	12582.4
2149	12560.8
2150.45	12598.3
2151.89	12551.8
2153.34	12524.7
2154.78	12536.1
2156.22	12546.3
2157.67	12535.5
2159.11	12544.2
2160.55	12529.5
2162	12503
2163.44	12490.8
2164.88	12532.4
2166.32	12483.5
2167.76	12505.1
2169.2	12546.3
2170.64	12479.8
2172.09	12487.2
2173.53	12449.2
2174.97	12462.9
2176.41	12450.5
2177.85	12436.9
2179.29	12456.8
2180.72	12411.1
2182.16	12416.6
2183.6	12384
2185.04	12415.5
2186.48	12371.7
2187.92	12331.3
2189.35	12332.8
2190.79	12303
2192.23	12340.5
2193.66	12323.4
2195.1	12329.1
2196.54	12313.4
2197.97	12301.9
2199.41	12330.2
2200.84	12300.9
2202.28	12279.7
2203.71	12261.9
2205.15	12246.4
2206.58	12241.6
2208.02	12241.2
2209.45	12229.7
2210.88	12173.7
2212.32	12150.7
2213.75	12182.1
2215.18	12115
2216.62	12139.4
2218.05	12124
2219.48	12085.8
2220.91	12084.7
2222.34	12070
2223.78	12079.6
2225.21	12046.6
2226.64	12071.6
2228.07	12069
2229.5	11981.4
2230.93	12039.4
2232.36	11975.2
2233.79	11979.9
2235.22	12000.2
2236.65	11963.3
2238.07	11941
2239.5	11956.5
2240.93	11945
2242.36	11897.8
2243.79	11873.2
2245.21	11927.4
2246.64	11846.7
2248.07	11894.7
2249.49	11863.7
2250.92	11865.6
2252.35	11836.2
2253.77	11824.7
2255.2	11782.5
2256.62	11756.6
2258.05	11732.2
2259.47	11708.1
2260.9	11726.2
2262.32	11669.2
2263.75	11700.3
2265.17	11687.3
2266.59	11618
2268.02	11642.4
2269.44	11616.9
2270.86	11600.4
2272.29	11545.6
2273.71	11561.5
2275.13	11550.9
2276.55	11560.7
2277.97	11581.3
2279.39	11521.9
2280.81	11512.9
2282.24	11513.5
2283.66	11444.2
2285.08	11448.1
2286.5	11427.9
2287.92	11423.2
2289.34	11411.3
2290.75	11433.7
2292.17	11394
2293.59	11386.8
2295.01	11373.4
2296.43	11357.4
2297.85	11358.1
2299.26	11357.6
2300.68	11320.8
2302.1	11304.9
2303.51	11223.7
2304.93	11270.8
2306.35	11252.6
2307.76	11216.6
2309.18	11216.8
2310.6	11231
2312.01	11249.9
2313.43	11226.2
2314.84	11195.1
2316.25	11165.4
2317.67	11153.5
2319.08	11146.3
2320.5	11141.7
2321.91	11151.4
2323.32	11186.7
2324.74	11194.3
2326.15	11266.9
2327.56	11310.6
2328.98	11240.6
2330.39	11101.9
2331.8	11019.2
2333.21	11025.4
2334.62	10995.2
2336.03	10981.7
2337.44	10970.7
2338.85	10985.2
2340.26	10959.7
2341.67	10964.2
2343.08	10914.5
2344.49	10961.5
2345.9	10905
2347.31	10890
2348.72	10913.6
2350.13	10867.6
2351.54	10823.5
2352.94	10829.7
2354.35	10805.7
2355.76	10817.8
2357.17	10768.9
2358.57	10708.3
2359.98	10723.9
2361.39	10716.8
2362.79	10746.1
2364.2	10701.6
2365.6	10753.4
2367.01	10708.6
2368.41	10702.7
2369.82	10684
2371.22	10691.5
2372.63	10670.1
2374.03	10671.1
2375.44	10626.3
2376.84	10628.9
2378.24	10607.5
2379.65	10603.9
2381.05	10614.3
2382.45	10602.5
2383.85	10595.6
2385.26	10594.4
2386.66	10553.3
2388.06	10576
2389.46	10555.8
2390.86	10505.5
2392.26	10529
2393.66	10495.2
2395.06	10513.2
2396.46	10498.5
2397.86	10492.2
2399.26	10471.6
2400.66	10460.2
2402.06	10468.2
2403.46	10449.3
2404.86	10420.1
2406.26	10393.5
2407.66	10418.2
2409.05	10435.8
2410.45	10399.5
2411.85	10372.1
2413.24	10372.1
2414.64	10344.2
2416.04	10334.2
2417.43	10350.5
2418.83	10316.5
2420.23	10312.4
2421.62	10304.5
2423.02	10294.8
2424.41	10276.9
2425.81	10271.9
2427.2	10268.8
2428.6	10258.4
2429.99	10241.2
2431.38	10250.8
2432.78	10201.5
2434.17	10211.2
2435.56	10196.4
2436.96	10177.9
2438.35	10147.6
2439.74	10171.9
2441.13	10173.1
2442.53	10141.2
2443.92	10147
2445.31	10113.1
2446.7	10119
2448.09	10127.7
2449.48	10125.8
2450.87	10114.4
2452.26	10091.6
2453.65	10037
2455.04	10067.1
2456.43	10082.2
2457.82	10042
2459.21	10037.4
2460.6	10016
2461.98	10023.3
2463.37	9988.54
2464.76	9941.82
2466.15	9982.56
2467.53	9965.49
2468.92	9966.49
2470.31	9964.69
2471.7	9937.35
2473.08	9893.68
2474.47	9918.38
2475.85	9900.5
2477.24	9878.82
2478.63	9872.75
2480.01	9846.49
2481.39	9860.93
2482.78	9857.05
2484.16	9862.03
2485.55	9851.26
2486.93	9833.3
2488.32	9834.92
2489.7	9822.83
2491.08	9781.17
2492.46	9790.32
2493.85	9755.35
2495.23	9757.48
2496.61	9716.14
2497.99	9754.71
2499.38	9725.63
2500.76	9708.07
2502.14	9716.2
2503.52	9708.96
2504.9	9701.69
2506.28	9684.42
2507.66	9635.71
2509.04	9643.83
2510.42	9631.48
2511.8	9648.73
2513.18	9626.27
2514.56	9605.3
2515.94	9617.34
2517.31	9603.98
2518.69	9606.95
2520.07	9621.07
2521.45	9584.96
2522.82	9571.5
2524.2	9557.84
2525.58	9548.23
2526.96	9564.23
2528.33	9557.69
2529.71	9545.48
2531.09	9501.84
2532.46	9525.6
2533.84	9522.45
2535.21	9477.5
2536.59	9507.1
2537.96	9491.54
2539.34	9464.04
2540.71	9483.22
2542.08	9435.81
2543.46	9416.5
2544.83	9448.3
2546.2	9417.99
2547.58	9413.94
2548.95	9392.16
2550.32	9373.21
2551.7	9383.68
2553.07	9355.73
2554.44	9322.72
2555.81	9303.05
2557.18	9330.93
2558.55	9327.72
2559.92	9330.9
2561.29	9309.95
2562.66	9296.46
2564.03	9263.84
2565.4	9250.94
2566.77	9250.72
2568.14	9257.13
2569.51	9255.56
2570.88	9227.97
2572.25	9220.93
2573.62	9200.35
2574.99	9228.06
2576.35	9246.61
2577.72	9188.97
2579.09	9217.13
2580.46	9193.73
2581.82	9169.61
2583.19	9198.2
2584.56	9205.58
2585.92	9177.18
2587.29	9194.59
2588.65	9185.61
2590.02	9157.85
2591.38	9157.01
2592.75	9131.17
2594.11	9186.01
2595.48	9143.03
2596.84	9143.01
2598.21	9091.31
2599.57	9098.06
2600.93	9092.16
2602.3	9060.73
2603.66	9089.89
2605.02	9084.6
2606.39	9028.13
2607.75	9092.83
2609.11	9073.08
2610.47	9050.81
2611.83	9073.48
2613.19	9051.39
2614.56	9019.22
2615.92	8999.54
2617.28	9010
2618.64	8990.67
2620	8992
2621.36	8972.31
2622.72	8971.01
2624.08	8961.37
2625.44	8978
2626.8	8959.93
2628.15	8947.27
2629.51	8929.87
2630.87	8911.63
2632.23	8930.7
2633.59	8884.03
2634.94	8897.85
2636.3	8890.98
2637.66	8887.05
2639.01	8869.2
2640.37	8862.12
2641.73	8856.12
2643.08	8837.7
2644.44	8862.46
2645.79	8821.17
2647.15	8806.72
2648.5	8804.01
2649.86	8781.28
2651.21	8803.12
2652.57	8794.18
2653.92	8828.97
2655.28	8736.49
2656.63	8806.46
2657.98	8764.42
2659.33	8759.57
2660.69	8792.32
2662.04	8770.77
2663.39	8725.12
2664.75	8727.31
2666.1	8730.65
2667.45	8740.69
2668.8	8721.62
2670.15	8694.99
2671.5	8713.01
2672.85	8687.51
2674.2	8690.85
2675.55	8708.27
2676.9	8683.99
2678.25	8663.86
2679.6	8634.94
2680.95	8652.59
2682.3	8636.96
2683.65	8625.99
2685	8587.08
2686.35	8598.94
2687.7	8611.13
2689.04	8595.81
2690.39	8582.18
2691.74	8558.74
2693.09	8575.82
2694.43	8566.47
2695.78	8548.68
2697.13	8528.98
2698.47	8525.33
2699.82	8531.22
2701.16	8556.93
2702.51	8570.11
2703.85	8542.85
2705.2	8528.42
2706.54	8540.91
2707.89	8501.9
2709.23	8495.27
2710.58	8506.72
2711.92	8495.74
2713.26	8502.04
2714.61	8471.36
2715.95	8466.41
2717.29	8462.23
2718.64	8443.28
2719.98	8426.81
2721.32	8427.82
2722.66	8428.38
2724	8379.35
2725.35	8465.14
2726.69	8405.29
2728.03	8377.64
2729.37	8372.5
2730.71	8365.1
2732.05	8364.85
2733.39	8364.62
2734.73	8347.13
2736.07	8303.54
2737.41	8307.5
2738.75	8270.33
2740.09	8278.73
2741.42	8282.92
2742.76	8270.29
2744.1	8259.28
2745.44	8272.59
2746.78	8259.43
2748.11	8198.21
2749.45	8204.73
2750.79	8188.06
2752.12	8200.45
2753.46	8176.97
2754.8	8169.91
2756.13	8158.36
2757.47	8189.48
2758.81	8152.31
2760.14	8133.5
2761.47	8113.04
2762.81	8110.74
2764.14	8119.83
2765.48	8122.71
2766.81	8078.2
2768.15	8086.31
2769.48	8057.33
2770.81	8059.14
2772.15	8049.09
2773.48	8032.13
2774.81	8051.62
2776.14	8015.82
2777.48	8036.02
2778.81	7991.99
2780.14	8010.76
2781.47	7975.89
2782.8	7980.58
2784.13	7945.58
2785.47	7946.21
2786.8	7942.16
2788.13	7877.62
2789.46	7915.19
2790.79	7889.78
2792.12	7924.64
2793.44	7905.52
2794.77	7908.41
2796.1	7889.7
2797.43	7924.11
2798.76	7909.67
2800.09	7878.55
2801.42	7859.35
2802.74	7877.89
2804.07	7842.93
2805.4	7808.43
2806.73	7809.36
2808.05	7813.92
2809.38	7812.33
2810.71	7773.41
2812.03	7791.51
2813.36	7798.75
2814.68	7843.36
2816.01	7812.96
2817.33	7808.33
2818.66	7809.53
2819.98	7785.98
2821.31	7789.99
2822.63	7812.69
2823.96	7793.55
2825.28	7765.22
2826.6	7759.53
2827.93	7792.48
2829.25	7795.62
2830.57	7799.28
2831.9	7777.54
2833.22	7832.65
2834.54	7841.29
2835.86	7858.92
2837.19	7903.66
2838.51	7979.06
2839.83	8010.33
2841.15	8120
2842.47	8137.56
2843.79	8234.37
2845.11	8335.79
2846.43	8406.45
2847.75	8440.25
2849.07	8451.38
2850.39	8462.92
2851.71	8436.63
2853.03	8418.45
2854.35	8375.39
2855.66	8375.35
2856.98	8360.71
2858.3	8309.49
2859.62	8272.29
2860.94	8232.89
2862.25	8233.85
2863.57	8209.25
2864.89	8215.39
2866.2	8206.91
2867.52	8236.1
2868.84	8251.47
2870.15	8256.43
2871.47	8243.47
2872.78	8284.76
2874.1	8252.79
2875.41	8287.46
2876.73	8305.06
2878.04	8332.45
2879.36	8313.53
2880.67	8339.69
2881.98	8346.8
2883.3	8314.95
2884.61	8317.75
2885.92	8309.5
2887.24	8334.16
2888.55	8331.8
2889.86	8317.03
2891.18	8317.39
2892.49	8312.06
2893.8	8269.69
2895.11	8265.43
2896.42	8295.12
2897.73	8257.11
2899.04	8258.52
2900.35	8217.93
2901.67	8220.03
2902.97	8198.48
2904.29	8186.18
2905.59	8164.3
2906.9	8169.63
2908.21	8181.2
2909.52	8160.31
2910.83	8155.58
2912.14	8113.88
2913.45	8115.59
2914.76	8116.94
2916.06	8121.94
2917.37	8067.86
2918.68	8065.45
2919.99	8069.85
2921.29	8070.61
2922.6	8052.74
2923.91	8057.84
2925.21	8049.73
2926.52	8046.24
2927.82	8012.98
2929.13	8026.93
2930.44	8019.91
2931.74	7990.32
2933.05	7985.42
2934.35	7969.58
2935.65	7963.03
2936.96	7891.01
2938.26	7876.1
2939.57	7827.34
2940.87	7759.92
2942.17	7720.99
2943.48	7665.85
2944.78	7606.5
2946.08	7563.94
2947.38	7523.85
2948.69	7542.23
2949.99	7504.51
2951.29	7486.5
2952.59	7488.36
2953.89	7453.99
2955.19	7448.2
2956.49	7429.04
2957.8	7423.37
2959.1	7415.78
2960.4	7390.39
2961.7	7389.71
2962.99	7376.89
2964.29	7343.52
2965.59	7331.65
2966.89	7288.53
2968.19	7311.86
2969.49	7264.02
2970.79	7237.67
2972.09	7214.35
2973.38	7193.79
2974.68	7196.98
2975.98	7171.28
2977.28	7191.86
2978.57	7168.18
2979.87	7169.1
2981.17	7136.99
2982.46	7150.51
2983.76	7136.99
2985.05	7078.81
2986.35	7061.41
2987.65	7073.06
2988.94	7039.19
2990.24	7070.91
2991.53	7065.12
2992.82	7051.04
2994.12	7046.9
2995.41	7021.21
2996.71	6985.07
2998	7016.96
2999.29	6998.87
3000.59	6998.22
3001.88	6994.81
3003.17	6968.12
3004.47	6960.17
3005.76	7001.14
3007.05	6970.39
3008.34	6945.92
3009.63	6975.32
3010.92	6941.06
3012.21	6917.57
3013.5	6926.18
3014.8	6899.24
3016.09	6886.67
3017.38	6897.46
3018.67	6904.33
3019.96	6925.92
3021.25	6900.38
3022.54	6886.45
3023.82	6916.55
3025.11	6892.9
3026.4	6884.38
3027.69	6858.07
3028.98	6868.35
3030.27	6873.77
3031.55	6823.02
3032.84	6864.7
3034.13	6850.65
3035.42	6826.44
3036.7	6867.61
3037.99	6846.6
3039.28	6870.78
3040.56	6871.6
3041.85	6860.5
3043.13	6832.37
3044.42	6868.77
3045.7	6874.99
3046.99	6848.45
3048.27	6858.62
3049.56	6836.05
3050.84	6843.3
3052.13	6851.34
3053.41	6867.63
3054.69	6861.73
3055.98	6871.38
3057.26	6874.33
3058.54	6878.71
3059.83	6891.52
3061.11	6888.28
3062.39	6874.57
3063.67	6878.54
3064.95	6854.89
3066.24	6884.62
3067.52	6876.82
3068.8	6859.02
3070.08	6858.79
3071.36	6878.26
3072.64	6879.77
3073.92	6870.47
3075.2	6858.86
3076.48	6862.92
3077.76	6879.25
3079.04	6893.25
3080.32	6858.41
3081.6	6878.94
3082.88	6868.17
3084.16	6885.33
3085.44	6888.28
3086.71	6865.48
3087.99	6890.95
3089.27	6889.55
3090.55	6894.27
3091.82	6891.33
3093.1	6920.44
3094.38	6919.97
3095.65	6896.94
3096.93	6889.79
3098.21	6905.79
3099.48	6911.83
3100.76	6896.54
3102.03	6932.54
3103.31	6929.5
3104.58	6942.79
3105.86	6952.84
3107.13	6984.35
3108.41	6970.31
3109.68	7002.48
3110.96	6991.89
3112.23	6973.92
3113.5	6986.16
3114.78	6983.56
3116.05	7002.26
3117.32	7016.15
3118.59	7029.54
3119.87	7007.58
3121.14	7019.58
3122.41	7052.79
3123.68	7034.67
3124.95	7044.62
3126.23	7074.87
3127.5	7061.08
3128.77	7060.13
3130.04	7090.19
3131.31	7112.12
3132.58	7125.59
3133.85	7091.93
3135.12	7135.58
3136.39	7138.59
3137.66	7143.97
3138.93	7125.69
3140.2	7119.23
3141.46	7125.53
3142.73	7133.24
3144	7144.18
3145.27	7164.16
3146.54	7161.8
3147.8	7192.24
3149.07	7237.15
3150.34	7204.91
3151.6	7225.17
3152.87	7233.45
3154.14	7244.45
3155.4	7231.55
3156.67	7246.43
3157.94	7259.53
3159.2	7255.07
3160.47	7235.78
3161.73	7247.31
3163	7252.11
3164.26	7272.85
3165.53	7268.78
3166.79	7263.19
3168.05	7233.59
3169.32	7234.16
3170.58	7233.34
3171.84	7218.42
3173.11	7192.87
3174.37	7179.21
3175.63	7171.91
3176.9	7174.53
3178.16	7175.79
3179.42	7151.47
3180.68	7145.57
3181.94	7104.7
3183.21	7123.15
3184.47	7127.07
3185.73	7088.29
3186.99	7083.87
3188.25	7094.28
3189.51	7084.7
3190.77	7075.01
3192.03	7052.28
3193.29	7061.33
3194.55	7036.95
3195.81	7015.58
3197.07	7008.31
3198.33	6995.14
3199.58	6996.06
3200.84	6974.84
3202.1	6969.77
3203.36	6968.52
3204.62	6969.82
3205.87	6942.49
3207.13	6940.79
3208.39	6935.7
3209.65	6901.9
3210.9	6903.74
3212.16	6876.99
3213.41	6875.27
3214.67	6841.69
3215.93	6827.35
3217.18	6815
3218.44	6809.89
3219.69	6810.64
3220.95	6788.02
3222.2	6800.53
3223.46	6771.66
3224.71	6785.08
3225.97	6756.21
3227.22	6740.35
3228.47	6714.39
3229.73	6732.97
3230.98	6709.63
3232.23	6708.38
3233.48	6695.44
3234.74	6676.29
3235.99	6648.66
3237.24	6658.06
3238.49	6665.23
3239.75	6626.4
3241	6627.45
3242.25	6617.36
3243.5	6605.63
3244.75	6581.14
3246	6586.07
3247.25	6558.69
3248.5	6545.52
3249.75	6537.29
3251	6525.11
3252.25	6498.24
3253.5	6488.62
3254.75	6465.45
3256	6440
3257.25	6433.66
3258.49	6430.9
3259.74	6412.45
3260.99	6387.38
3262.24	6379.84
3263.49	6365.85
3264.73	6364.72
3265.98	6352.69
3267.23	6349.57
3268.47	6347.61
3269.72	6339.11
3270.97	6330.67
3272.21	6301.41
3273.46	6304.66
3274.7	6298.48
3275.95	6270.71
3277.2	6247.58
3278.44	6224.9
3279.69	6234.37
3280.93	6234.77
3282.17	6218.88
3283.42	6200.24
3284.66	6186.14
3285.91	6200.25
3287.15	6180.02
3288.39	6183.03
3289.64	6167.01
3290.88	6151.22
3292.12	6146.16
3292.31	6139.9
3293.56	6121.91
3294.8	6104.07
3296.05	6098.85
3297.3	6082.06
3298.55	6080.27
3299.79	6084.77
3301.04	6035.86
3302.29	6078.53
3303.54	6058.36
3304.78	6042.65
3306.03	6023.29
3307.27	6032.62
3308.52	6022.28
3309.76	6010.94
3311.01	5998.45
3312.26	6002.3
3313.5	5977.8
3314.75	5978.83
3315.99	5956.27
3317.23	5946.23
3318.48	5953.02
3319.72	5961.3
3320.97	5944.2
3322.21	5942.69
3323.45	5923.49
3324.7	5921.06
3325.94	5904.76
3327.18	5918.02
3328.42	5901.76
3329.67	5900.77
3330.91	5895.04
3332.15	5873.85
3333.39	5875.02
3334.63	5852.38
3335.87	5870.4
3337.12	5849.88
3338.36	5839.47
3339.6	5834.04
3340.84	5787.39
3342.08	5823.88
3343.32	5809.33
3344.56	5804.4
3345.8	5786.92
3347.04	5811.19
3348.27	5773.72
3349.51	5759.32
3350.75	5764.91
3351.99	5748.76
3353.23	5729.42
3354.47	5713.47
3355.7	5729.53
3356.94	5737.32
3358.18	5712.91
3359.42	5712.53
3360.65	5700.7
3361.89	5689.57
3363.13	5678.09
3364.36	5674.13
3365.6	5669.3
3366.83	5652.97
3368.07	5658.35
3369.31	5658.35
3370.54	5645.04
3371.78	5620.9
3373.01	5657.86
3374.25	5628.75
3375.48	5597.05
3376.71	5611.3
3377.95	5612.35
3379.18	5618.47
3380.42	5601.77
3381.65	5580.05
3382.88	5577.42
3384.12	5571.01
3385.35	5558.94
3386.58	5551.09
3387.81	5550.54
3389.04	5535.78
3390.28	5525.5
3391.51	5521.62
3392.74	5529.68
3393.97	5524.52
3395.2	5493.71
3396.43	5509.79
3397.67	5501.26
3398.9	5467.51
3400.13	5480.82
3401.36	5481.01
3402.58	5455.37
3403.82	5448.7
3405.05	5463.78
3406.27	5463.71
3407.5	5393.94
3408.73	5418
3409.96	5425.47
3411.19	5407.97
3412.42	5377.95
3413.64	5388.48
3414.87	5370.21
3416.1	5359.28
3417.33	5362.82
3418.55	5345.46
3419.78	5334.38
3421.01	5340.93
3422.23	5309.63
3423.46	5304.39
3424.69	5316.94
3425.91	5288.93
3427.14	5267.15
3428.36	5263.86
3429.59	5240.18
3430.81	5250.14
3432.04	5234.15
3433.26	5194.51
3434.49	5217.28
3435.71	5212.52
3436.94	5170.11
3438.16	5176.35
3439.39	5157.9
3440.61	5143.37
3441.83	5135.4
3443.05	5131.04
3444.28	5102.06
3445.5	5108.15
3446.72	5101.25
3447.95	5072.46
3449.17	5054.48
3450.39	5043.74
3451.61	5060.57
3452.83	5040.29
3454.05	5029.88
3455.27	5013.21
3456.5	5021.6
3457.71	5008.48
3458.94	4983.87
3460.16	4962.99
3461.38	4959.77
3462.59	4934.59
3463.81	4926.24
3465.03	4926.66
3466.25	4892.46
3467.47	4902.65
3468.69	4862.51
3469.91	4872.46
3471.13	4857.21
3472.35	4822.21
3473.56	4822.71
3474.78	4809.1
3476	4790.47
3477.22	4788.6
3478.43	4785.56
3479.65	4756.01
3480.87	4730.16
3482.08	4704.52
3483.3	4688.92
3484.52	4663.71
3485.73	4683.2
3486.95	4658.69
3488.16	4644.4
3489.38	4626.73
3490.59	4623.01
3491.81	4594.53
3493.02	4574.73
3494.24	4562.63
3495.45	4561.16
3496.67	4539.92
3497.88	4526.7
3499.09	4501.84
